0.000000	0.052720
0.000500	0.055772
0.001000	0.058366
0.001500	0.060350
0.002000	0.061875
0.002500	0.062638
0.003000	0.063401
0.003500	0.064317
0.004000	0.065538
0.004500	0.067064
0.005000	0.068284
0.005500	0.068437
0.006000	0.068284
0.006500	0.067674
0.007000	0.067979
0.007500	0.067979
0.008000	0.066758
0.008500	0.064927
0.009000	0.063096
0.009500	0.060655
0.010000	0.057908
0.010500	0.056535
0.011000	0.055772
0.011500	0.054093
0.012000	0.050889
0.012500	0.046464
0.013000	0.042344
0.013500	0.039445
0.014000	0.038071
0.014500	0.038071
0.015000	0.037766
0.015500	0.038376
0.016000	0.040055
0.016500	0.042954
0.017000	0.047379
0.017500	0.050889
0.018000	0.052415
0.018500	0.053941
0.019000	0.056993
0.019500	0.060655
0.020000	0.064317
0.020500	0.067674
0.021000	0.070878
0.021500	0.072251
0.022000	0.071641
0.022500	0.069200
0.023000	0.065538
0.023500	0.061418
0.024000	0.058518
0.024500	0.055772
0.025000	0.054246
0.025500	0.053025
0.026000	0.051499
0.026500	0.049210
0.027000	0.045396
0.027500	0.041581
0.028000	0.038834
0.028500	0.037156
0.029000	0.036545
0.029500	0.036545
0.030000	0.036240
0.030500	0.036393
0.031000	0.036088
0.031500	0.036545
0.032000	0.038071
0.032500	0.040208
0.033000	0.042039
0.033500	0.042954
0.034000	0.043259
0.034500	0.045701
0.035000	0.050889
0.035500	0.057603
0.036000	0.065385
0.036500	0.070573
0.037000	0.073167
0.037500	0.072709
0.038000	0.071336
0.038500	0.070726
0.039000	0.070726
0.039500	0.070115
0.040000	0.068589
0.040500	0.067674
0.041000	0.065995
0.041500	0.064469
0.042000	0.062333
0.042500	0.059739
0.043000	0.056382
0.043500	0.053025
0.044000	0.049363
0.044500	0.044938
0.045000	0.040055
0.045500	0.036698
0.046000	0.036393
0.046500	0.038224
0.047000	0.039902
0.047500	0.041428
0.048000	0.043259
0.048500	0.045396
0.049000	0.049668
0.049500	0.054704
0.050000	0.057298
0.050500	0.058518
0.051000	0.058518
0.051500	0.058518
0.052000	0.059434
0.052500	0.060960
0.053000	0.063859
0.053500	0.068284
0.054000	0.072251
0.054500	0.075303
0.055000	0.077745
0.055500	0.077745
0.056000	0.075914
0.056500	0.071641
0.057000	0.065995
0.057500	0.060960
0.058000	0.057908
0.058500	0.055772
0.059000	0.051194
0.059500	0.045548
0.060000	0.042039
0.060500	0.042649
0.061000	0.043565
0.061500	0.040360
0.062000	0.033494
0.062500	0.026322
0.063000	0.023423
0.063500	0.028306
0.064000	0.038071
0.064500	0.045548
0.065000	0.046616
0.065500	0.043412
0.066000	0.040208
0.066500	0.039445
0.067000	0.041733
0.067500	0.046006
0.068000	0.051194
0.068500	0.055772
0.069000	0.058518
0.069500	0.060044
0.070000	0.060960
0.070500	0.063096
0.071000	0.067979
0.071500	0.074693
0.072000	0.079271
0.072500	0.078203
0.073000	0.073167
0.073500	0.066911
0.074000	0.061418
0.074500	0.057603
0.075000	0.054856
0.075500	0.051652
0.076000	0.048142
0.076500	0.046311
0.077000	0.048295
0.077500	0.052720
0.078000	0.055009
0.078500	0.055619
0.079000	0.057298
0.079500	0.061265
0.080000	0.063401
0.080500	0.061265
0.081000	0.053636
0.081500	0.042191
0.082000	0.031052
0.082500	0.025711
0.083000	0.027543
0.083500	0.032578
0.084000	0.038987
0.084500	0.046006
0.085000	0.052720
0.085500	0.057298
0.086000	0.060044
0.086500	0.062791
0.087000	0.065232
0.087500	0.065843
0.088000	0.063401
0.088500	0.060655
0.089000	0.058366
0.089500	0.056993
0.090000	0.056687
0.090500	0.058213
0.091000	0.059739
0.091500	0.059739
0.092000	0.058061
0.092500	0.054856
0.093000	0.050126
0.093500	0.042649
0.094000	0.036088
0.094500	0.032883
0.095000	0.033188
0.095500	0.035019
0.096000	0.035477
0.096500	0.033036
0.097000	0.027695
0.097500	0.022355
0.098000	0.018998
0.098500	0.018998
0.099000	0.022049
0.099500	0.027695
0.100000	0.032883
0.100500	0.035325
0.101000	0.038224
0.101500	0.043870
0.102000	0.050279
0.102500	0.055924
0.103000	0.060350
0.103500	0.064469
0.104000	0.067216
0.104500	0.066453
0.105000	0.063249
0.105500	0.060350
0.106000	0.059739
0.106500	0.060044
0.107000	0.059587
0.107500	0.058671
0.108000	0.058366
0.108500	0.056993
0.109000	0.052873
0.109500	0.046922
0.110000	0.041428
0.110500	0.037766
0.111000	0.035783
0.111500	0.034409
0.112000	0.032731
0.112500	0.030289
0.113000	0.028153
0.113500	0.026475
0.114000	0.026322
0.114500	0.028000
0.115000	0.031357
0.115500	0.035477
0.116000	0.040055
0.116500	0.045091
0.117000	0.048753
0.117500	0.051499
0.118000	0.054856
0.118500	0.058518
0.119000	0.060655
0.119500	0.060960
0.120000	0.060044
0.120500	0.058824
0.121000	0.059281
0.121500	0.060655
0.122000	0.060655
0.122500	0.058976
0.123000	0.057908
0.123500	0.058366
0.124000	0.057603
0.124500	0.053941
0.125000	0.049668
0.125500	0.046006
0.126000	0.043412
0.126500	0.040665
0.127000	0.036851
0.127500	0.033036
0.128000	0.029984
0.128500	0.028306
0.129000	0.028000
0.129500	0.028000
0.130000	0.026627
0.130500	0.025406
0.131000	0.025559
0.131500	0.027848
0.132000	0.032273
0.132500	0.035325
0.133000	0.036698
0.133500	0.039445
0.134000	0.042039
0.134500	0.042649
0.135000	0.042191
0.135500	0.044328
0.136000	0.053636
0.136500	0.067521
0.137000	0.081407
0.137500	0.092088
0.138000	0.098192
0.138500	0.098955
0.139000	0.094224
0.139500	0.086900
0.140000	0.079271
0.140500	0.070726
0.141000	0.064469
0.141500	0.062181
0.142000	0.060807
0.142500	0.056840
0.143000	0.048600
0.143500	0.038987
0.144000	0.030442
0.144500	0.024643
0.145000	0.020676
0.145500	0.018235
0.146000	0.016556
0.146500	0.014725
0.147000	0.013352
0.147500	0.013504
0.148000	0.015793
0.148500	0.020218
0.149000	0.024949
0.149500	0.028611
0.150000	0.032120
0.150500	0.035630
0.151000	0.038834
0.151500	0.041886
0.152000	0.045091
0.152500	0.048753
0.153000	0.053483
0.153500	0.058824
0.154000	0.063401
0.154500	0.066758
0.155000	0.067674
0.155500	0.068132
0.156000	0.066148
0.156500	0.062486
0.157000	0.058824
0.157500	0.057145
0.158000	0.056077
0.158500	0.056230
0.159000	0.055772
0.159500	0.053330
0.160000	0.048142
0.160500	0.040818
0.161000	0.031357
0.161500	0.022660
0.162000	0.016098
0.162500	0.013352
0.163000	0.014267
0.163500	0.017777
0.164000	0.021592
0.164500	0.023423
0.165000	0.025711
0.165500	0.029221
0.166000	0.033799
0.166500	0.038987
0.167000	0.042802
0.167500	0.045548
0.168000	0.047532
0.168500	0.048600
0.169000	0.049821
0.169500	0.052110
0.170000	0.055619
0.170500	0.059739
0.171000	0.062486
0.171500	0.063707
0.172000	0.064164
0.172500	0.065232
0.173000	0.067064
0.173500	0.065385
0.174000	0.059587
0.174500	0.052873
0.175000	0.047685
0.175500	0.044785
0.176000	0.043107
0.176500	0.041123
0.177000	0.036240
0.177500	0.028763
0.178000	0.021439
0.178500	0.017319
0.179000	0.016251
0.179500	0.016709
0.180000	0.018692
0.180500	0.023117
0.181000	0.028306
0.181500	0.031205
0.182000	0.032578
0.182500	0.035325
0.183000	0.040208
0.183500	0.042649
0.184000	0.040818
0.184500	0.036240
0.185000	0.031052
0.185500	0.027237
0.186000	0.028000
0.186500	0.036851
0.187000	0.048905
0.187500	0.056382
0.188000	0.055772
0.188500	0.051499
0.189000	0.046311
0.189500	0.041123
0.190000	0.038071
0.190500	0.039445
0.191000	0.044633
0.191500	0.050584
0.192000	0.055467
0.192500	0.057908
0.193000	0.057298
0.193500	0.051957
0.194000	0.043870
0.194500	0.037156
0.195000	0.034562
0.195500	0.037766
0.196000	0.046159
0.196500	0.055467
0.197000	0.060350
0.197500	0.058518
0.198000	0.053636
0.198500	0.048753
0.199000	0.046616
0.199500	0.046311
0.200000	0.046006
0.200500	0.041733
0.201000	0.032883
0.201500	0.022202
0.202000	0.013504
0.202500	0.010300
0.203000	0.014878
0.203500	0.025101
0.204000	0.036698
0.204500	0.049363
0.205000	0.059587
0.205500	0.063401
0.206000	0.060044
0.206500	0.055314
0.207000	0.052110
0.207500	0.048753
0.208000	0.046616
0.208500	0.047532
0.209000	0.051805
0.209500	0.057298
0.210000	0.060044
0.210500	0.055467
0.211000	0.043870
0.211500	0.029832
0.212000	0.017777
0.212500	0.010452
0.213000	0.007248
0.213500	0.006485
0.214000	0.006943
0.214500	0.007858
0.215000	0.008621
0.215500	0.009995
0.216000	0.012284
0.216500	0.015793
0.217000	0.019455
0.217500	0.024643
0.218000	0.030900
0.218500	0.035325
0.219000	0.038224
0.219500	0.044633
0.220000	0.055314
0.220500	0.064775
0.221000	0.066758
0.221500	0.063249
0.222000	0.062944
0.222500	0.069505
0.223000	0.076219
0.223500	0.075608
0.224000	0.068895
0.224500	0.060960
0.225000	0.053941
0.225500	0.048448
0.226000	0.041428
0.226500	0.033494
0.227000	0.027695
0.227500	0.026017
0.228000	0.028611
0.228500	0.031663
0.229000	0.031205
0.229500	0.029374
0.230000	0.029221
0.230500	0.028306
0.231000	0.023880
0.231500	0.017014
0.232000	0.010605
0.232500	0.004349
0.233000	0.000839
0.233500	0.004196
0.234000	0.015793
0.234500	0.031968
0.235000	0.048142
0.235500	0.058824
0.236000	0.062944
0.236500	0.060960
0.237000	0.055619
0.237500	0.049210
0.238000	0.043565
0.238500	0.038987
0.239000	0.036851
0.239500	0.035630
0.240000	0.035783
0.240500	0.036545
0.241000	0.035783
0.241500	0.033494
0.242000	0.031663
0.242500	0.031205
0.243000	0.029526
0.243500	0.025406
0.244000	0.020371
0.244500	0.016709
0.245000	0.014420
0.245500	0.012741
0.246000	0.010605
0.246500	0.009537
0.247000	0.009995
0.247500	0.010910
0.248000	0.011826
0.248500	0.012436
0.249000	0.014572
0.249500	0.018235
0.250000	0.023270
0.250500	0.028000
0.251000	0.031052
0.251500	0.034104
0.252000	0.038224
0.252500	0.045396
0.253000	0.053483
0.253500	0.059129
0.254000	0.060655
0.254500	0.057298
0.255000	0.050279
0.255500	0.040208
0.256000	0.027848
0.256500	0.016403
0.257000	0.010300
0.257500	0.011826
0.258000	0.018082
0.258500	0.025559
0.259000	0.033799
0.259500	0.041733
0.260000	0.047532
0.260500	0.047227
0.261000	0.040513
0.261500	0.030747
0.262000	0.022049
0.262500	0.015641
0.263000	0.012741
0.263500	0.014878
0.264000	0.021744
0.264500	0.034409
0.265000	0.051805
0.265500	0.063859
0.266000	0.063859
0.266500	0.051041
0.267000	0.030594
0.267500	0.014878
0.268000	0.008469
0.268500	0.007248
0.269000	0.010910
0.269500	0.018845
0.270000	0.028000
0.270500	0.034104
0.271000	0.038224
0.271500	0.044480
0.272000	0.052415
0.272500	0.056077
0.273000	0.052873
0.273500	0.045701
0.274000	0.039445
0.274500	0.038071
0.275000	0.038987
0.275500	0.039445
0.276000	0.038682
0.276500	0.038987
0.277000	0.042191
0.277500	0.045853
0.278000	0.047685
0.278500	0.047227
0.279000	0.042802
0.279500	0.034104
0.280000	0.023117
0.280500	0.013962
0.281000	0.010605
0.281500	0.014420
0.282000	0.022507
0.282500	0.030442
0.283000	0.036088
0.283500	0.040208
0.284000	0.042039
0.284500	0.040208
0.285000	0.036240
0.285500	0.032578
0.286000	0.030442
0.286500	0.030900
0.287000	0.031510
0.287500	0.030747
0.288000	0.029679
0.288500	0.029221
0.289000	0.031205
0.289500	0.034104
0.290000	0.034714
0.290500	0.034104
0.291000	0.035935
0.291500	0.038987
0.292000	0.040513
0.292500	0.042649
0.293000	0.044785
0.293500	0.042039
0.294000	0.033951
0.294500	0.023117
0.295000	0.011978
0.295500	0.000839
0.296000	-0.006790
0.296500	-0.010452
0.297000	-0.012741
0.297500	-0.015640
0.298000	-0.020065
0.298500	-0.025101
0.299000	-0.023880
0.299500	-0.013504
0.300000	0.000076
0.300500	0.010910
0.301000	0.022202
0.301500	0.035630
0.302000	0.049516
0.302500	0.062028
0.303000	0.072862
0.303500	0.079576
0.304000	0.081254
0.304500	0.081407
0.305000	0.083696
0.305500	0.086442
0.306000	0.083543
0.306500	0.072709
0.307000	0.055772
0.307500	0.040055
0.308000	0.029221
0.308500	0.024491
0.309000	0.022965
0.309500	0.020829
0.310000	0.017014
0.310500	0.011521
0.311000	0.005722
0.311500	0.000076
0.312000	-0.003433
0.312500	-0.006180
0.313000	-0.007553
0.313500	-0.007095
0.314000	-0.005722
0.314500	-0.000839
0.315000	0.006180
0.315500	0.012436
0.316000	0.015793
0.316500	0.017319
0.317000	0.018235
0.317500	0.019303
0.318000	0.020371
0.318500	0.021897
0.319000	0.025711
0.319500	0.033036
0.320000	0.041733
0.320500	0.049821
0.321000	0.052567
0.321500	0.052110
0.322000	0.051805
0.322500	0.052415
0.323000	0.051499
0.323500	0.047685
0.324000	0.043412
0.324500	0.040360
0.325000	0.037461
0.325500	0.032883
0.326000	0.028000
0.326500	0.023117
0.327000	0.017777
0.327500	0.012284
0.328000	0.007553
0.328500	0.004501
0.329000	0.001144
0.329500	-0.003586
0.330000	-0.008774
0.330500	-0.012589
0.331000	-0.014420
0.331500	-0.013352
0.332000	-0.011063
0.332500	-0.008621
0.333000	-0.004959
0.333500	0.000076
0.334000	0.004807
0.334500	0.008774
0.335000	0.012894
0.335500	0.018845
0.336000	0.025559
0.336500	0.030137
0.337000	0.033188
0.337500	0.037461
0.338000	0.042649
0.338500	0.048295
0.339000	0.051041
0.339500	0.049058
0.340000	0.044938
0.340500	0.040513
0.341000	0.036393
0.341500	0.033951
0.342000	0.034104
0.342500	0.035325
0.343000	0.034104
0.343500	0.032273
0.344000	0.027390
0.344500	0.019608
0.345000	0.010300
0.345500	0.002670
0.346000	-0.002060
0.346500	-0.002670
0.347000	0.000839
0.347500	0.007858
0.348000	0.014420
0.348500	0.018845
0.349000	0.021286
0.349500	0.022202
0.350000	0.022812
0.350500	0.024338
0.351000	0.027848
0.351500	0.032883
0.352000	0.039597
0.352500	0.046616
0.353000	0.053941
0.353500	0.059739
0.354000	0.061570
0.354500	0.058518
0.355000	0.052720
0.355500	0.046311
0.356000	0.040665
0.356500	0.037156
0.357000	0.036240
0.357500	0.040055
0.358000	0.046922
0.358500	0.053178
0.359000	0.053941
0.359500	0.049363
0.360000	0.039140
0.360500	0.028000
0.361000	0.020066
0.361500	0.016861
0.362000	0.016251
0.362500	0.015641
0.363000	0.013962
0.363500	0.013810
0.364000	0.013504
0.364500	0.011673
0.365000	0.009079
0.365500	0.008316
0.366000	0.010605
0.366500	0.017014
0.367000	0.027390
0.367500	0.037614
0.368000	0.042344
0.368500	0.043107
0.369000	0.045701
0.369500	0.051194
0.370000	0.059281
0.370500	0.064775
0.371000	0.064317
0.371500	0.059281
0.372000	0.051347
0.372500	0.042344
0.373000	0.034409
0.373500	0.028611
0.374000	0.025406
0.374500	0.024186
0.375000	0.023423
0.375500	0.023270
0.376000	0.023423
0.376500	0.023728
0.377000	0.024338
0.377500	0.023270
0.378000	0.018692
0.378500	0.013810
0.379000	0.011215
0.379500	0.009079
0.380000	0.004349
0.380500	-0.001297
0.381000	-0.004196
0.381500	-0.003586
0.382000	-0.000381
0.382500	0.003586
0.383000	0.007248
0.383500	0.011215
0.384000	0.016098
0.384500	0.022202
0.385000	0.029221
0.385500	0.036545
0.386000	0.043107
0.386500	0.047532
0.387000	0.049973
0.387500	0.053025
0.388000	0.056077
0.388500	0.057298
0.389000	0.055924
0.389500	0.053636
0.390000	0.051194
0.390500	0.047685
0.391000	0.042649
0.391500	0.034867
0.392000	0.025559
0.392500	0.016709
0.393000	0.009995
0.393500	0.005264
0.394000	-0.000076
0.394500	-0.005112
0.395000	-0.010452
0.395500	-0.012894
0.396000	-0.011368
0.396500	-0.008621
0.397000	-0.008163
0.397500	-0.008774
0.398000	-0.009537
0.398500	-0.009689
0.399000	-0.008774
0.399500	-0.006180
0.400000	-0.001602
0.400500	0.005875
0.401000	0.014725
0.401500	0.022507
0.402000	0.028306
0.402500	0.033951
0.403000	0.039445
0.403500	0.045701
0.404000	0.052415
0.404500	0.055467
0.405000	0.053636
0.405500	0.050126
0.406000	0.049668
0.406500	0.051041
0.407000	0.051499
0.407500	0.049058
0.408000	0.041123
0.408500	0.029679
0.409000	0.018540
0.409500	0.011215
0.410000	0.008469
0.410500	0.010300
0.411000	0.011826
0.411500	0.009690
0.412000	0.003891
0.412500	-0.003433
0.413000	-0.008621
0.413500	-0.009842
0.414000	-0.007706
0.414500	-0.004349
0.415000	-0.001297
0.415500	0.001450
0.416000	0.003433
0.416500	0.006485
0.417000	0.011215
0.417500	0.019455
0.418000	0.028763
0.418500	0.035935
0.419000	0.038376
0.419500	0.037003
0.420000	0.034257
0.420500	0.033951
0.421000	0.034257
0.421500	0.033036
0.422000	0.030747
0.422500	0.027390
0.423000	0.023270
0.423500	0.021744
0.424000	0.024033
0.424500	0.029374
0.425000	0.034714
0.425500	0.036545
0.426000	0.032883
0.426500	0.024796
0.427000	0.012741
0.427500	-0.000839
0.428000	-0.010452
0.428500	-0.015183
0.429000	-0.015183
0.429500	-0.010147
0.430000	-0.002212
0.430500	0.008011
0.431000	0.018082
0.431500	0.025101
0.432000	0.028916
0.432500	0.030137
0.433000	0.030442
0.433500	0.030747
0.434000	0.031510
0.434500	0.032883
0.435000	0.033951
0.435500	0.033951
0.436000	0.035019
0.436500	0.037919
0.437000	0.043412
0.437500	0.049668
0.438000	0.054246
0.438500	0.056077
0.439000	0.051805
0.439500	0.041581
0.440000	0.030900
0.440500	0.024033
0.441000	0.020066
0.441500	0.016403
0.442000	0.012436
0.442500	0.008164
0.443000	0.005875
0.443500	0.005570
0.444000	0.006943
0.444500	0.009384
0.445000	0.012741
0.445500	0.014420
0.446000	0.014420
0.446500	0.013352
0.447000	0.014267
0.447500	0.016861
0.448000	0.020066
0.448500	0.020066
0.449000	0.014572
0.449500	0.006943
0.450000	0.003891
0.450500	0.007248
0.451000	0.012436
0.451500	0.016861
0.452000	0.018998
0.452500	0.020371
0.453000	0.021286
0.453500	0.021897
0.454000	0.022202
0.454500	0.022507
0.455000	0.022202
0.455500	0.021744
0.456000	0.021744
0.456500	0.021897
0.457000	0.020676
0.457500	0.018845
0.458000	0.017167
0.458500	0.018082
0.459000	0.021744
0.459500	0.029068
0.460000	0.035935
0.460500	0.036393
0.461000	0.028000
0.461500	0.012894
0.462000	-0.005264
0.462500	-0.020523
0.463000	-0.029526
0.463500	-0.029068
0.464000	-0.021134
0.464500	-0.011673
0.465000	-0.004349
0.465500	0.001907
0.466000	0.009690
0.466500	0.018235
0.467000	0.024338
0.467500	0.027695
0.468000	0.028306
0.468500	0.027848
0.469000	0.028153
0.469500	0.031510
0.470000	0.037919
0.470500	0.046311
0.471000	0.051957
0.471500	0.052110
0.472000	0.045396
0.472500	0.037766
0.473000	0.032426
0.473500	0.030442
0.474000	0.031052
0.474500	0.031968
0.475000	0.030289
0.475500	0.025254
0.476000	0.018998
0.476500	0.013657
0.477000	0.009079
0.477500	0.006943
0.478000	0.007096
0.478500	0.007248
0.479000	0.005722
0.479500	0.001144
0.480000	-0.006485
0.480500	-0.013504
0.481000	-0.016251
0.481500	-0.011978
0.482000	-0.000687
0.482500	0.012131
0.483000	0.019150
0.483500	0.020829
0.484000	0.023575
0.484500	0.028458
0.485000	0.032578
0.485500	0.035019
0.486000	0.036240
0.486500	0.034104
0.487000	0.028306
0.487500	0.022049
0.488000	0.020218
0.488500	0.024949
0.489000	0.032578
0.489500	0.037766
0.490000	0.037614
0.490500	0.033799
0.491000	0.030442
0.491500	0.031968
0.492000	0.039597
0.492500	0.046922
0.493000	0.045548
0.493500	0.033341
0.494000	0.014267
0.494500	-0.008469
0.495000	-0.034104
0.495500	-0.053788
0.496000	-0.061112
0.496500	-0.054704
0.497000	-0.040970
0.497500	-0.026780
0.498000	-0.015640
0.498500	-0.007401
0.499000	-0.002823
0.499500	-0.001297
0.500000	-0.001297
0.500500	-0.000534
0.501000	0.002365
0.501500	0.006943
0.502000	0.013047
0.502500	0.020523
0.503000	0.028000
0.503500	0.031205
0.504000	0.029984
0.504500	0.027085
0.505000	0.025864
0.505500	0.027390
0.506000	0.031357
0.506500	0.039140
0.507000	0.048448
0.507500	0.053636
0.508000	0.053025
0.508500	0.046311
0.509000	0.034714
0.509500	0.023728
0.510000	0.017319
0.510500	0.016098
0.511000	0.017777
0.511500	0.020066
0.512000	0.022507
0.512500	0.023117
0.513000	0.021744
0.513500	0.019150
0.514000	0.013352
0.514500	0.005722
0.515000	0.000076
0.515500	-0.003128
0.516000	-0.006332
0.516500	-0.010758
0.517000	-0.014572
0.517500	-0.017624
0.518000	-0.022049
0.518500	-0.026322
0.519000	-0.024338
0.519500	-0.015793
0.520000	-0.005417
0.520500	0.007553
0.521000	0.024796
0.521500	0.042649
0.522000	0.058213
0.522500	0.067369
0.523000	0.061723
0.523500	0.042344
0.524000	0.018692
0.524500	-0.000839
0.525000	-0.015335
0.525500	-0.023270
0.526000	-0.024338
0.526500	-0.016403
0.527000	-0.002670
0.527500	0.010147
0.528000	0.016403
0.528500	0.014420
0.529000	0.005722
0.529500	-0.003891
0.530000	-0.010910
0.530500	-0.015946
0.531000	-0.019760
0.531500	-0.022660
0.532000	-0.024185
0.532500	-0.026169
0.533000	-0.028153
0.533500	-0.027237
0.534000	-0.022049
0.534500	-0.014572
0.535000	-0.006943
0.535500	0.001450
0.536000	0.011826
0.536500	0.022049
0.537000	0.030747
0.537500	0.038376
0.538000	0.044938
0.538500	0.047837
0.539000	0.047532
0.539500	0.045853
0.540000	0.044785
0.540500	0.044633
0.541000	0.043870
0.541500	0.041733
0.542000	0.037308
0.542500	0.031815
0.543000	0.025864
0.543500	0.020218
0.544000	0.016098
0.544500	0.015030
0.545000	0.014878
0.545500	0.011826
0.546000	0.006485
0.546500	-0.000381
0.547000	-0.007095
0.547500	-0.007401
0.548000	-0.004196
0.548500	-0.003281
0.549000	-0.004196
0.549500	-0.002823
0.550000	0.004501
0.550500	0.017167
0.551000	0.028611
0.551500	0.036393
0.552000	0.040055
0.552500	0.043870
0.553000	0.047379
0.553500	0.045548
0.554000	0.037156
0.554500	0.027390
0.555000	0.022812
0.555500	0.022812
0.556000	0.024338
0.556500	0.026780
0.557000	0.030137
0.557500	0.035935
0.558000	0.041428
0.558500	0.044785
0.559000	0.045091
0.559500	0.043717
0.560000	0.041733
0.560500	0.039597
0.561000	0.037461
0.561500	0.034409
0.562000	0.027695
0.562500	0.017319
0.563000	0.004501
0.563500	-0.007706
0.564000	-0.014878
0.564500	-0.015793
0.565000	-0.012436
0.565500	-0.005264
0.566000	0.005570
0.566500	0.016709
0.567000	0.027390
0.567500	0.038682
0.568000	0.051194
0.568500	0.061418
0.569000	0.068132
0.569500	0.070115
0.570000	0.064927
0.570500	0.055467
0.571000	0.050431
0.571500	0.054704
0.572000	0.062181
0.572500	0.064469
0.573000	0.057145
0.573500	0.042802
0.574000	0.028153
0.574500	0.015183
0.575000	0.004807
0.575500	0.000229
0.576000	0.000839
0.576500	0.002365
0.577000	0.006638
0.577500	0.015488
0.578000	0.023270
0.578500	0.029984
0.579000	0.034409
0.579500	0.034867
0.580000	0.030442
0.580500	0.022965
0.581000	0.018387
0.581500	0.018692
0.582000	0.021286
0.582500	0.024643
0.583000	0.029068
0.583500	0.035325
0.584000	0.042039
0.584500	0.046922
0.585000	0.050736
0.585500	0.057298
0.586000	0.065538
0.586500	0.073167
0.587000	0.077134
0.587500	0.078050
0.588000	0.077440
0.588500	0.078660
0.589000	0.082323
0.589500	0.083848
0.590000	0.080797
0.590500	0.074693
0.591000	0.067064
0.591500	0.059129
0.592000	0.053636
0.592500	0.053330
0.593000	0.052415
0.593500	0.048448
0.594000	0.042649
0.594500	0.036851
0.595000	0.030594
0.595500	0.024949
0.596000	0.022660
0.596500	0.024796
0.597000	0.027237
0.597500	0.024033
0.598000	0.016251
0.598500	0.006638
0.599000	-0.004501
0.599500	-0.014115
0.600000	-0.018387
0.600500	-0.014725
0.601000	-0.004959
0.601500	0.006790
0.602000	0.016556
0.602500	0.022202
0.603000	0.025254
0.603500	0.028306
0.604000	0.034104
0.604500	0.040208
0.605000	0.045243
0.605500	0.047990
0.606000	0.048600
0.606500	0.047379
0.607000	0.042954
0.607500	0.037156
0.608000	0.033799
0.608500	0.031052
0.609000	0.027237
0.609500	0.023117
0.610000	0.018692
0.610500	0.017472
0.611000	0.022202
0.611500	0.031052
0.612000	0.037614
0.612500	0.038682
0.613000	0.036851
0.613500	0.034104
0.614000	0.031663
0.614500	0.033188
0.615000	0.039140
0.615500	0.043565
0.616000	0.042954
0.616500	0.040818
0.617000	0.041581
0.617500	0.045548
0.618000	0.049821
0.618500	0.052415
0.619000	0.051499
0.619500	0.047532
0.620000	0.044480
0.620500	0.044480
0.621000	0.047837
0.621500	0.051499
0.622000	0.054246
0.622500	0.055161
0.623000	0.056230
0.623500	0.058976
0.624000	0.062791
0.624500	0.065538
0.625000	0.065690
0.625500	0.062181
0.626000	0.055467
0.626500	0.047685
0.627000	0.039902
0.627500	0.032578
0.628000	0.027237
0.628500	0.025101
0.629000	0.026475
0.629500	0.027390
0.630000	0.028000
0.630500	0.029832
0.631000	0.030442
0.631500	0.027085
0.632000	0.020981
0.632500	0.016251
0.633000	0.015335
0.633500	0.018235
0.634000	0.023270
0.634500	0.028763
0.635000	0.033036
0.635500	0.035019
0.636000	0.032426
0.636500	0.027695
0.637000	0.024949
0.637500	0.026322
0.638000	0.029374
0.638500	0.029374
0.639000	0.025559
0.639500	0.018235
0.640000	0.004349
0.640500	-0.009842
0.641000	-0.013504
0.641500	-0.000687
0.642000	0.020676
0.642500	0.035477
0.643000	0.038682
0.643500	0.034409
0.644000	0.026932
0.644500	0.017319
0.645000	0.007553
0.645500	-0.000381
0.646000	-0.006180
0.646500	-0.009842
0.647000	-0.010910
0.647500	-0.009995
0.648000	-0.009079
0.648500	-0.007858
0.649000	-0.003738
0.649500	0.004807
0.650000	0.014572
0.650500	0.022202
0.651000	0.026169
0.651500	0.026627
0.652000	0.027085
0.652500	0.033188
0.653000	0.041428
0.653500	0.050584
0.654000	0.059281
0.654500	0.065995
0.655000	0.070268
0.655500	0.074235
0.656000	0.076829
0.656500	0.075608
0.657000	0.068284
0.657500	0.056993
0.658000	0.046311
0.658500	0.039750
0.659000	0.038682
0.659500	0.041733
0.660000	0.047837
0.660500	0.053636
0.661000	0.055619
0.661500	0.050889
0.662000	0.040208
0.662500	0.023117
0.663000	0.001450
0.663500	-0.020218
0.664000	-0.036698
0.664500	-0.045090
0.665000	-0.046464
0.665500	-0.045243
0.666000	-0.042801
0.666500	-0.037766
0.667000	-0.028153
0.667500	-0.012894
0.668000	0.003586
0.668500	0.017014
0.669000	0.023728
0.669500	0.025254
0.670000	0.023423
0.670500	0.017929
0.671000	0.013352
0.671500	0.015641
0.672000	0.020981
0.672500	0.024033
0.673000	0.022660
0.673500	0.017319
0.674000	0.008927
0.674500	0.003739
0.675000	0.006180
0.675500	0.012589
0.676000	0.017014
0.676500	0.018845
0.677000	0.017167
0.677500	0.012741
0.678000	0.008316
0.678500	0.007553
0.679000	0.006485
0.679500	0.003739
0.680000	0.001297
0.680500	0.000382
0.681000	0.002213
0.681500	0.005722
0.682000	0.011673
0.682500	0.018387
0.683000	0.025406
0.683500	0.029832
0.684000	0.030747
0.684500	0.030289
0.685000	0.031052
0.685500	0.036240
0.686000	0.044633
0.686500	0.047532
0.687000	0.040665
0.687500	0.032883
0.688000	0.029068
0.688500	0.028611
0.689000	0.027390
0.689500	0.025559
0.690000	0.019455
0.690500	0.008469
0.691000	-0.007706
0.691500	-0.027085
0.692000	-0.046769
0.692500	-0.063401
0.693000	-0.073014
0.693500	-0.073472
0.694000	-0.067368
0.694500	-0.059892
0.695000	-0.055009
0.695500	-0.051804
0.696000	-0.048142
0.696500	-0.040970
0.697000	-0.031662
0.697500	-0.021439
0.698000	-0.009079
0.698500	0.004807
0.699000	0.019761
0.699500	0.033646
0.700000	0.046159
0.700500	0.055467
0.701000	0.060044
0.701500	0.061113
0.702000	0.063249
0.702500	0.070115
0.703000	0.081712
0.703500	0.090715
0.704000	0.093309
0.704500	0.089647
0.705000	0.079576
0.705500	0.062944
0.706000	0.040665
0.706500	0.014267
0.707000	-0.013352
0.707500	-0.029679
0.708000	-0.020829
0.708500	0.009690
0.709000	0.043259
0.709500	0.062486
0.710000	0.063096
0.710500	0.053178
0.711000	0.041428
0.711500	0.031815
0.712000	0.025864
0.712500	0.022049
0.713000	0.019455
0.713500	0.015946
0.714000	0.011826
0.714500	0.009537
0.715000	0.012741
0.715500	0.021286
0.716000	0.032426
0.716500	0.042649
0.717000	0.048600
0.717500	0.050889
0.718000	0.053636
0.718500	0.058671
0.719000	0.062638
0.719500	0.062638
0.720000	0.058518
0.720500	0.052720
0.721000	0.045701
0.721500	0.036698
0.722000	0.027237
0.722500	0.019608
0.723000	0.016251
0.723500	0.015793
0.724000	0.014572
0.724500	0.011826
0.725000	0.006485
0.725500	-0.000381
0.726000	-0.004959
0.726500	-0.011978
0.727000	-0.021134
0.727500	-0.027848
0.728000	-0.030594
0.728500	-0.030136
0.729000	-0.026322
0.729500	-0.020981
0.730000	-0.015030
0.730500	-0.008469
0.731000	0.002213
0.731500	0.017167
0.732000	0.031052
0.732500	0.041733
0.733000	0.052110
0.733500	0.064164
0.734000	0.075456
0.734500	0.084459
0.735000	0.091936
0.735500	0.102464
0.736000	0.120165
0.736500	0.143359
0.737000	0.163653
0.737500	0.169604
0.738000	0.156024
0.738500	0.127184
0.739000	0.088731
0.739500	0.048448
0.740000	0.011215
0.740500	-0.014115
0.741000	-0.022354
0.741500	-0.011978
0.742000	0.013199
0.742500	0.042649
0.743000	0.064164
0.743500	0.075151
0.744000	0.080034
0.744500	0.085680
0.745000	0.096056
0.745500	0.111620
0.746000	0.128710
0.746500	0.144579
0.747000	0.154803
0.747500	0.143511
0.748000	0.110094
0.748500	0.069505
0.749000	0.032883
0.749500	0.006790
0.750000	-0.000534
0.750500	0.005264
0.751000	0.008164
0.751500	-0.000687
0.752000	-0.013504
0.752500	-0.018082
0.753000	-0.014572
0.753500	-0.013046
0.754000	-0.015183
0.754500	-0.018235
0.755000	-0.021591
0.755500	-0.030289
0.756000	-0.041581
0.756500	-0.051346
0.757000	-0.064011
0.757500	-0.081407
0.758000	-0.091173
0.758500	-0.080339
0.759000	-0.054398
0.759500	-0.023880
0.760000	0.002060
0.760500	0.017472
0.761000	0.020981
0.761500	0.018387
0.762000	0.005264
0.762500	-0.017014
0.763000	-0.037156
0.763500	-0.048905
0.764000	-0.048905
0.764500	-0.036393
0.765000	-0.016556
0.765500	-0.002670
0.766000	-0.002365
0.766500	-0.010452
0.767000	-0.018540
0.767500	-0.022049
0.768000	-0.012741
0.768500	0.008774
0.769000	0.032578
0.769500	0.050889
0.770000	0.065080
0.770500	0.077745
0.771000	0.084154
0.771500	0.080491
0.772000	0.067216
0.772500	0.039597
0.773000	-0.001450
0.773500	-0.045548
0.774000	-0.075608
0.774500	-0.082170
0.775000	-0.072709
0.775500	-0.055314
0.776000	-0.032425
0.776500	-0.004349
0.777000	0.024949
0.777500	0.054093
0.778000	0.078050
0.778500	0.090868
0.779000	0.093004
0.779500	0.088426
0.780000	0.078050
0.780500	0.071183
0.781000	0.080491
0.781500	0.104601
0.782000	0.124895
0.782500	0.131914
0.783000	0.129015
0.783500	0.121233
0.784000	0.103685
0.784500	0.062638
0.785000	0.005417
0.785500	-0.045396
0.786000	-0.084001
0.786500	-0.106126
0.787000	-0.104143
0.787500	-0.080034
0.788000	-0.044327
0.788500	-0.007401
0.789000	0.022049
0.789500	0.041428
0.790000	0.052415
0.790500	0.057298
0.791000	0.047990
0.791500	0.023423
0.792000	-0.005722
0.792500	-0.026627
0.793000	-0.037461
0.793500	-0.038071
0.794000	-0.028763
0.794500	-0.009689
0.795000	0.012741
0.795500	0.027543
0.796000	0.034867
0.796500	0.044938
0.797000	0.059892
0.797500	0.081560
0.798000	0.112078
0.798500	0.149920
0.799000	0.189746
0.799500	0.226215
0.800000	0.252918
0.800500	0.266346
0.801000	0.266957
0.801500	0.259327
0.802000	0.258412
0.802500	0.274586
0.803000	0.293355
0.803500	0.296864
0.804000	0.288167
0.804500	0.276112
0.805000	0.263294
0.805500	0.236133
0.806000	0.179980
0.806500	0.104143
0.807000	0.030137
0.807500	-0.029374
0.808000	-0.070573
0.808500	-0.089647
0.809000	-0.097276
0.809500	-0.107805
0.810000	-0.119097
0.810500	-0.124132
0.811000	-0.117723
0.811500	-0.095140
0.812000	-0.059892
0.812500	-0.014725
0.813000	0.039902
0.813500	0.096666
0.814000	0.146868
0.814500	0.185168
0.815000	0.203479
0.815500	0.208820
0.816000	0.213550
0.816500	0.218128
0.817000	0.220874
0.817500	0.215686
0.818000	0.198901
0.818500	0.166247
0.819000	0.115740
0.819500	0.050736
0.820000	-0.017166
0.820500	-0.071031
0.821000	-0.091173
0.821500	-0.072099
0.822000	-0.028611
0.822500	0.018540
0.823000	0.062486
0.823500	0.103533
0.824000	0.136034
0.824500	0.152819
0.825000	0.156176
0.825500	0.147326
0.826000	0.119555
0.826500	0.079881
0.827000	0.046006
0.827500	0.026780
0.828000	0.013352
0.828500	-0.007706
0.829000	-0.038224
0.829500	-0.062486
0.830000	-0.065232
0.830500	-0.057450
0.831000	-0.054856
0.831500	-0.063706
0.832000	-0.080034
0.832500	-0.101396
0.833000	-0.117113
0.833500	-0.119707
0.834000	-0.106889
0.834500	-0.075151
0.835000	-0.030594
0.835500	0.019303
0.836000	0.060655
0.836500	0.077592
0.837000	0.075914
0.837500	0.080034
0.838000	0.096361
0.838500	0.121233
0.839000	0.160296
0.839500	0.212940
0.840000	0.269093
0.840500	0.329824
0.841000	0.395438
0.841500	0.450523
0.842000	0.472496
0.842500	0.455558
0.843000	0.412833
0.843500	0.357595
0.844000	0.310903
0.844500	0.292897
0.845000	0.303273
0.845500	0.326467
0.846000	0.347524
0.846500	0.358206
0.847000	0.355154
0.847500	0.338216
0.848000	0.308766
0.848500	0.256886
0.849000	0.168536
0.849500	0.050736
0.850000	-0.072557
0.850500	-0.173419
0.851000	-0.242542
0.851500	-0.274128
0.852000	-0.262989
0.852500	-0.218280
0.853000	-0.142138
0.853500	-0.045853
0.854000	0.051805
0.854500	0.137713
0.855000	0.208667
0.855500	0.257801
0.856000	0.270619
0.856500	0.246052
0.857000	0.199207
0.857500	0.145800
0.858000	0.100328
0.858500	0.074693
0.859000	0.074388
0.859500	0.095293
0.860000	0.130541
0.860500	0.177844
0.861000	0.242847
0.861500	0.334707
0.862000	0.445487
0.862500	0.536431
0.863000	0.576410
0.863500	0.560388
0.864000	0.491875
0.864500	0.382162
0.865000	0.246662
0.865500	0.103075
0.866000	-0.020981
0.866500	-0.097124
0.867000	-0.110246
0.867500	-0.063859
0.868000	0.012436
0.868500	0.078660
0.869000	0.111620
0.869500	0.116655
0.870000	0.124590
0.870500	0.151904
0.871000	0.191577
0.871500	0.244373
0.872000	0.302663
0.872500	0.348440
0.873000	0.362173
0.873500	0.330739
0.874000	0.270314
0.874500	0.204852
0.875000	0.150988
0.875500	0.126574
0.876000	0.132677
0.876500	0.137255
0.877000	0.115587
0.877500	0.069352
0.878000	0.020218
0.878500	-0.007706
0.879000	-0.003891
0.879500	0.031968
0.880000	0.093309
0.880500	0.159838
0.881000	0.217212
0.881500	0.258717
0.882000	0.285573
0.882500	0.310597
0.883000	0.336233
0.883500	0.362631
0.884000	0.387198
0.884500	0.396964
0.885000	0.376974
0.885500	0.330129
0.886000	0.279927
0.886500	0.244373
0.887000	0.224842
0.887500	0.215381
0.888000	0.212940
0.888500	0.220111
0.889000	0.245441
0.889500	0.286793
0.890000	0.324025
0.890500	0.330892
0.891000	0.305257
0.891500	0.263600
0.892000	0.233539
0.892500	0.228504
0.893000	0.235218
0.893500	0.242390
0.894000	0.237049
0.894500	0.212177
0.895000	0.169909
0.895500	0.122912
0.896000	0.081712
0.896500	0.060655
0.897000	0.066606
0.897500	0.093767
0.898000	0.130236
0.898500	0.166857
0.899000	0.205005
0.899500	0.248341
0.900000	0.293050
0.900500	0.319448
0.901000	0.311208
0.901500	0.263142
0.902000	0.201038
0.902500	0.159686
0.903000	0.151751
0.903500	0.174182
0.904000	0.220874
0.904500	0.283436
0.905000	0.351186
0.905500	0.398489
0.906000	0.405051
0.906500	0.368887
0.907000	0.315175
0.907500	0.277180
0.908000	0.258259
0.908500	0.237659
0.909000	0.201190
0.909500	0.155261
0.910000	0.122606
0.910500	0.107500
0.911000	0.079271
0.911500	0.009690
0.912000	-0.088884
0.912500	-0.173876
0.913000	-0.217822
0.913500	-0.230793
0.914000	-0.217822
0.914500	-0.161669
0.915000	-0.062028
0.915500	0.058976
0.916000	0.164721
0.916500	0.228657
0.917000	0.255360
0.917500	0.253529
0.918000	0.213855
0.918500	0.139239
0.919000	0.044785
0.919500	-0.049668
0.920000	-0.121843
0.920500	-0.161517
0.921000	-0.173724
0.921500	-0.164721
0.922000	-0.147631
0.922500	-0.138628
0.923000	-0.144121
0.923500	-0.150225
0.924000	-0.142138
0.924500	-0.108568
0.925000	-0.037766
0.925500	0.051194
0.926000	0.127489
0.926500	0.169604
0.927000	0.164721
0.927500	0.122301
0.928000	0.066453
0.928500	0.004654
0.929000	-0.064011
0.929500	-0.126879
0.930000	-0.166400
0.930500	-0.177081
0.931000	-0.164874
0.931500	-0.133440
0.932000	-0.082017
0.932500	-0.007401
0.933000	0.078965
0.933500	0.139696
0.934000	0.143359
0.934500	0.103990
0.935000	0.065843
0.935500	0.060960
0.936000	0.087663
0.936500	0.130541
0.937000	0.176623
0.937500	0.193713
0.938000	0.159228
0.938500	0.070726
0.939000	-0.040207
0.939500	-0.124895
0.940000	-0.153277
0.940500	-0.134508
0.941000	-0.092241
0.941500	-0.025559
0.942000	0.051194
0.942500	0.099260
0.943000	0.094072
0.943500	0.029679
0.944000	-0.057755
0.944500	-0.105974
0.945000	-0.078965
0.945500	0.013352
0.946000	0.137255
0.946500	0.251087
0.947000	0.316091
0.947500	0.324788
0.948000	0.291524
0.948500	0.239490
0.949000	0.197681
0.949500	0.177539
0.950000	0.172503
0.950500	0.163195
0.951000	0.137102
0.951500	0.100023
0.952000	0.055467
0.952500	-0.003586
0.953000	-0.072099
0.953500	-0.134813
0.954000	-0.191882
0.954500	-0.256733
0.955000	-0.328145
0.955500	-0.383688
0.956000	-0.404745
0.956500	-0.387198
0.957000	-0.335164
0.957500	-0.271076
0.958000	-0.226825
0.958500	-0.217670
0.959000	-0.216144
0.959500	-0.190051
0.960000	-0.133745
0.960500	-0.061723
0.961000	-0.000076
0.961500	0.039292
0.962000	0.070726
0.962500	0.129625
0.963000	0.233692
0.963500	0.370871
0.964000	0.516594
0.964500	0.638972
0.965000	0.707485
0.965500	0.694362
0.966000	0.592279
0.966500	0.437095
0.967000	0.281148
0.967500	0.157855
0.968000	0.075761
0.968500	0.019608
0.969000	-0.025406
0.969500	-0.061723
0.970000	-0.086595
0.970500	-0.078202
0.971000	-0.008926
0.971500	0.108415
0.972000	0.241474
0.972500	0.352865
0.973000	0.420157
0.973500	0.433127
0.974000	0.391775
0.974500	0.314870
0.975000	0.203327
0.975500	0.039292
0.976000	-0.167620
0.976500	-0.383841
0.977000	-0.570153
0.977500	-0.687648
0.978000	-0.711299
0.978500	-0.647059
0.979000	-0.519036
0.979500	-0.356527
0.980000	-0.193713
0.980500	-0.055466
0.981000	0.036545
0.981500	0.065843
0.982000	0.056077
0.982500	0.041581
0.983000	0.026475
0.983500	0.001450
0.984000	-0.036088
0.984500	-0.072251
0.985000	-0.065385
0.985500	0.022660
0.986000	0.201648
0.986500	0.441978
0.987000	0.676204
0.987500	0.844663
0.988000	0.937133
0.988500	0.950256
0.989000	0.881132
0.989500	0.739986
0.990000	0.531853
0.990500	0.262226
0.991000	-0.037613
0.991500	-0.319448
0.992000	-0.547265
0.992500	-0.691005
0.993000	-0.739376
0.993500	-0.715877
0.994000	-0.651636
0.994500	-0.543297
0.995000	-0.391165
0.995500	-0.216144
0.996000	-0.053330
0.996500	0.068437
0.997000	0.140002
0.997500	0.169604
0.998000	0.175403
0.998500	0.178454
0.999000	0.204395
0.999500	0.255970
1.000000	0.318227
1.000500	0.382467
1.001000	0.443046
1.001500	0.485008
1.002000	0.494316
1.002500	0.463188
1.003000	0.379721
1.003500	0.248951
1.004000	0.094224
1.004500	-0.067521
1.005000	-0.232624
1.005500	-0.385367
1.006000	-0.514305
1.006500	-0.609674
1.007000	-0.653925
1.007500	-0.643702
1.008000	-0.590600
1.008500	-0.504997
1.009000	-0.396200
1.009500	-0.278248
1.010000	-0.166857
1.010500	-0.072404
1.011000	0.015488
1.011500	0.116198
1.012000	0.220569
1.012500	0.305104
1.013000	0.363394
1.013500	0.401236
1.014000	0.429313
1.014500	0.469596
1.015000	0.517052
1.015500	0.542382
1.016000	0.510185
1.016500	0.408866
1.017000	0.260090
1.017500	0.092699
1.018000	-0.059129
1.018500	-0.170672
1.019000	-0.214008
1.019500	-0.186847
1.020000	-0.118181
1.020500	-0.021744
1.021000	0.096513
1.021500	0.206226
1.022000	0.286946
1.022500	0.333791
1.023000	0.348287
1.023500	0.322805
1.024000	0.244068
1.024500	0.138323
1.025000	0.052415
1.025500	0.003433
1.026000	-0.025864
1.026500	-0.033494
1.027000	-0.014115
1.027500	-0.009689
1.028000	-0.048753
1.028500	-0.128252
1.029000	-0.227741
1.029500	-0.312581
1.030000	-0.361105
1.030500	-0.364767
1.031000	-0.318532
1.031500	-0.241169
1.032000	-0.184710
1.032500	-0.173266
1.033000	-0.184100
1.033500	-0.192950
1.034000	-0.194171
1.034500	-0.177996
1.035000	-0.141375
1.035500	-0.080034
1.036000	0.011215
1.036500	0.105211
1.037000	0.169757
1.037500	0.221943
1.038000	0.289235
1.038500	0.366140
1.039000	0.431602
1.039500	0.454795
1.040000	0.430381
1.040500	0.376516
1.041000	0.306325
1.041500	0.224079
1.042000	0.132372
1.042500	0.049821
1.043000	-0.007095
1.043500	-0.023575
1.044000	-0.011215
1.044500	-0.003586
1.045000	-0.011521
1.045500	-0.011368
1.046000	0.019608
1.046500	0.078660
1.047000	0.155413
1.047500	0.233692
1.048000	0.286183
1.048500	0.300221
1.049000	0.288777
1.049500	0.275197
1.050000	0.277943
1.050500	0.292134
1.051000	0.318227
1.051500	0.353475
1.052000	0.371481
1.052500	0.342947
1.053000	0.270314
1.053500	0.171435
1.054000	0.070115
1.054500	-0.015335
1.055000	-0.077287
1.055500	-0.123979
1.056000	-0.172198
1.056500	-0.215686
1.057000	-0.232471
1.057500	-0.209125
1.058000	-0.140917
1.058500	-0.032883
1.059000	0.087205
1.059500	0.175403
1.060000	0.195850
1.060500	0.144884
1.061000	0.042344
1.061500	-0.075914
1.062000	-0.158465
1.062500	-0.166400
1.063000	-0.103075
1.063500	-0.010300
1.064000	0.075608
1.064500	0.132220
1.065000	0.144122
1.065500	0.132372
1.066000	0.152056
1.066500	0.249409
1.067000	0.422446
1.067500	0.616388
1.068000	0.742428
1.068500	0.736629
1.069000	0.595026
1.069500	0.373922
1.070000	0.140917
1.070500	-0.057450
1.071000	-0.197833
1.071500	-0.276570
1.072000	-0.294270
1.072500	-0.269856
1.073000	-0.245746
1.073500	-0.242389
1.074000	-0.247425
1.074500	-0.257191
1.075000	-0.282368
1.075500	-0.310140
1.076000	-0.317311
1.076500	-0.296864
1.077000	-0.252766
1.077500	-0.195544
1.078000	-0.133745
1.078500	-0.080034
1.079000	-0.052872
1.079500	-0.054246
1.080000	-0.065080
1.080500	-0.063096
1.081000	-0.045090
1.081500	-0.023575
1.082000	-0.010758
1.082500	-0.013809
1.083000	-0.024796
1.083500	-0.029984
1.084000	-0.006485
1.084500	0.073014
1.085000	0.213550
1.085500	0.398795
1.086000	0.603571
1.086500	0.784848
1.087000	0.902037
1.087500	0.930724
1.088000	0.884337
1.088500	0.793088
1.089000	0.674983
1.089500	0.528801
1.090000	0.349203
1.090500	0.161059
1.091000	-0.003128
1.091500	-0.123369
1.092000	-0.186847
1.092500	-0.199359
1.093000	-0.178912
1.093500	-0.133898
1.094000	-0.057603
1.094500	0.021897
1.095000	0.052110
1.095500	-0.002823
1.096000	-0.120012
1.096500	-0.242389
1.097000	-0.315175
1.097500	-0.322347
1.098000	-0.267109
1.098500	-0.178607
1.099000	-0.095903
1.099500	-0.029374
1.100000	0.017624
1.100500	0.031052
1.101000	0.004807
1.101500	-0.035172
1.102000	-0.038987
1.102500	0.014572
1.103000	0.115892
1.103500	0.252461
1.104000	0.392844
1.104500	0.489586
1.105000	0.498894
1.105500	0.397879
1.106000	0.207599
1.106500	-0.038681
1.107000	-0.289692
1.107500	-0.485923
1.108000	-0.572900
1.108500	-0.519188
1.109000	-0.364004
1.109500	-0.173114
1.110000	0.006027
1.110500	0.142596
1.111000	0.223163
1.111500	0.267720
1.112000	0.315938
1.112500	0.393454
1.113000	0.478294
1.113500	0.516594
1.114000	0.486839
1.114500	0.421988
1.115000	0.378348
1.115500	0.377432
1.116000	0.402762
1.116500	0.414664
1.117000	0.360952
1.117500	0.213245
1.118000	0.000229
1.118500	-0.187915
1.119000	-0.282063
1.119500	-0.285115
1.120000	-0.247883
1.120500	-0.212482
1.121000	-0.172198
1.121500	-0.102617
1.122000	-0.024491
1.122500	0.029221
1.123000	0.069963
1.123500	0.133898
1.124000	0.248188
1.124500	0.399558
1.125000	0.532464
1.125500	0.600214
1.126000	0.601129
1.126500	0.553521
1.127000	0.456779
1.127500	0.291066
1.128000	0.065843
1.128500	-0.164721
1.129000	-0.337148
1.129500	-0.427634
1.130000	-0.447928
1.130500	-0.435874
1.131000	-0.442130
1.131500	-0.480430
1.132000	-0.514305
1.132500	-0.492485
1.133000	-0.405814
1.133500	-0.279927
1.134000	-0.142748
1.134500	-0.024796
1.135000	0.047837
1.135500	0.074846
1.136000	0.075303
1.136500	0.077897
1.137000	0.106584
1.137500	0.164569
1.138000	0.225757
1.138500	0.245289
1.139000	0.215229
1.139500	0.154040
1.140000	0.089799
1.140500	0.063554
1.141000	0.097276
1.141500	0.175708
1.142000	0.277791
1.142500	0.381247
1.143000	0.479973
1.143500	0.592126
1.144000	0.715724
1.144500	0.826963
1.145000	0.898375
1.145500	0.898375
1.146000	0.799649
1.146500	0.609369
1.147000	0.342641
1.147500	0.053636
1.148000	-0.185626
1.148500	-0.348745
1.149000	-0.467765
1.149500	-0.556115
1.150000	-0.593042
1.150500	-0.572595
1.151000	-0.529259
1.151500	-0.489433
1.152000	-0.445792
1.152500	-0.372396
1.153000	-0.264210
1.153500	-0.136797
1.154000	-0.010910
1.154500	0.088884
1.155000	0.154803
1.155500	0.198444
1.156000	0.236286
1.156500	0.257954
1.157000	0.225147
1.157500	0.127337
1.158000	-0.012894
1.158500	-0.152666
1.159000	-0.248798
1.159500	-0.272450
1.160000	-0.207599
1.160500	-0.072099
1.161000	0.097581
1.161500	0.263600
1.162000	0.396048
1.162500	0.477836
1.163000	0.490654
1.163500	0.435416
1.164000	0.335622
1.164500	0.222705
1.165000	0.112078
1.165500	0.015793
1.166000	-0.049363
1.166500	-0.082627
1.167000	-0.092393
1.167500	-0.093767
1.168000	-0.096513
1.168500	-0.095293
1.169000	-0.073320
1.169500	-0.028305
1.170000	0.026475
1.170500	0.077592
1.171000	0.119402
1.171500	0.150988
1.172000	0.165942
1.172500	0.149920
1.173000	0.099870
1.173500	0.036545
1.174000	-0.015946
1.174500	-0.033036
1.175000	-0.021286
1.175500	-0.000839
1.176000	0.019455
1.176500	0.028000
1.177000	0.003891
1.177500	-0.025711
1.178000	-0.022049
1.178500	0.029526
1.179000	0.103075
1.179500	0.161975
1.180000	0.200885
1.180500	0.224842
1.181000	0.224689
1.181500	0.185779
1.182000	0.122149
1.182500	0.062028
1.183000	0.023117
1.183500	0.009690
1.184000	0.021897
1.184500	0.047685
1.185000	0.042039
1.185500	-0.019913
1.186000	-0.105516
1.186500	-0.165789
1.187000	-0.181964
1.187500	-0.166094
1.188000	-0.149920
1.188500	-0.145342
1.189000	-0.147326
1.189500	-0.144579
1.190000	-0.132372
1.190500	-0.105669
1.191000	-0.067063
1.191500	-0.036240
1.192000	-0.027237
1.192500	-0.028458
1.193000	-0.021134
1.193500	-0.004196
1.194000	0.017319
1.194500	0.051957
1.195000	0.091631
1.195500	0.129015
1.196000	0.166552
1.196500	0.192645
1.197000	0.186694
1.197500	0.146410
1.198000	0.091783
1.198500	0.054856
1.199000	0.049821
1.199500	0.064012
1.200000	0.091020
1.200500	0.116350
1.201000	0.119249
1.201500	0.102464
1.202000	0.077897
1.202500	0.062486
1.203000	0.070726
1.203500	0.104906
1.204000	0.150225
1.204500	0.188983
1.205000	0.198596
1.205500	0.157397
1.206000	0.073777
1.206500	-0.014420
1.207000	-0.073320
1.207500	-0.098497
1.208000	-0.104753
1.208500	-0.113756
1.209000	-0.138933
1.209500	-0.182116
1.210000	-0.232929
1.210500	-0.274739
1.211000	-0.297017
1.211500	-0.271992
1.212000	-0.165179
1.212500	0.009384
1.213000	0.202564
1.213500	0.362326
1.214000	0.455558
1.214500	0.466087
1.215000	0.402152
1.215500	0.289235
1.216000	0.161669
1.216500	0.047532
1.217000	-0.035782
1.217500	-0.078050
1.218000	-0.091630
1.218500	-0.096513
1.219000	-0.094224
1.219500	-0.079728
1.220000	-0.049821
1.220500	-0.001907
1.221000	0.075303
1.221500	0.194934
1.222000	0.349050
1.222500	0.512780
1.223000	0.651484
1.223500	0.746090
1.224000	0.801480
1.224500	0.814908
1.225000	0.752041
1.225500	0.582361
1.226000	0.317311
1.226500	0.010605
1.227000	-0.271229
1.227500	-0.478294
1.228000	-0.598230
1.228500	-0.632715
1.229000	-0.588006
1.229500	-0.489280
1.230000	-0.372549
1.230500	-0.269093
1.231000	-0.191119
1.231500	-0.139544
1.232000	-0.112077
1.232500	-0.098802
1.233000	-0.087968
1.233500	-0.064774
1.234000	-0.035172
1.234500	-0.023575
1.235000	-0.035477
1.235500	-0.054398
1.236000	-0.071183
1.236500	-0.080034
1.237000	-0.069963
1.237500	-0.041123
1.238000	-0.007095
1.238500	0.014420
1.239000	0.017167
1.239500	0.009384
1.240000	0.006638
1.240500	0.017624
1.241000	0.042344
1.241500	0.070726
1.242000	0.092393
1.242500	0.104906
1.243000	0.113909
1.243500	0.119860
1.244000	0.117723
1.244500	0.107042
1.245000	0.094530
1.245500	0.088731
1.246000	0.097276
1.246500	0.116808
1.247000	0.138323
1.247500	0.151293
1.248000	0.145800
1.248500	0.120165
1.249000	0.080491
1.249500	0.044633
1.250000	0.034104
1.250500	0.053025
1.251000	0.088731
1.251500	0.123827
1.252000	0.144884
1.252500	0.152209
1.253000	0.148089
1.253500	0.132982
1.254000	0.110704
1.254500	0.076829
1.255000	0.026322
1.255500	-0.022812
1.256000	-0.048905
1.256500	-0.054246
1.257000	-0.049821
1.257500	-0.041886
1.258000	-0.024185
1.258500	-0.000687
1.259000	0.016098
1.259500	0.020981
1.260000	0.018235
1.260500	0.021134
1.261000	0.037461
1.261500	0.063249
1.262000	0.084154
1.262500	0.077745
1.263000	0.043259
1.263500	0.003891
1.264000	-0.020676
1.264500	-0.043107
1.265000	-0.098650
1.265500	-0.199359
1.266000	-0.312581
1.266500	-0.392233
1.267000	-0.421225
1.267500	-0.409171
1.268000	-0.368429
1.268500	-0.318379
1.269000	-0.271687
1.269500	-0.226825
1.270000	-0.186694
1.270500	-0.156939
1.271000	-0.143511
1.271500	-0.137255
1.272000	-0.129320
1.272500	-0.112383
1.273000	-0.084306
1.273500	-0.062028
1.274000	-0.056229
1.274500	-0.055619
1.275000	-0.052567
1.275500	-0.051346
1.276000	-0.054398
1.276500	-0.067216
1.277000	-0.088578
1.277500	-0.117113
1.278000	-0.146105
1.278500	-0.164568
1.279000	-0.171435
1.279500	-0.163653
1.280000	-0.141680
1.280500	-0.110552
1.281000	-0.078813
1.281500	-0.053635
1.282000	-0.040818
1.282500	-0.036240
1.283000	-0.033341
1.283500	-0.032120
1.284000	-0.033036
1.284500	-0.034256
1.285000	-0.034562
1.285500	-0.036851
1.286000	-0.038529
1.286500	-0.031205
1.287000	-0.015640
1.287500	-0.000381
1.288000	0.004349
1.288500	-0.003281
1.289000	-0.016251
1.289500	-0.022660
1.290000	-0.017471
1.290500	-0.013504
1.291000	-0.020829
1.291500	-0.033341
1.292000	-0.045243
1.292500	-0.061265
1.293000	-0.080644
1.293500	-0.098497
1.294000	-0.113146
1.294500	-0.127031
1.295000	-0.145342
1.295500	-0.166094
1.296000	-0.184100
1.296500	-0.195697
1.297000	-0.200885
1.297500	-0.198444
1.298000	-0.188678
1.298500	-0.179828
1.299000	-0.174945
1.299500	-0.166400
1.300000	-0.149615
1.300500	-0.127642
1.301000	-0.107500
1.301500	-0.090410
1.302000	-0.075456
1.302500	-0.062180
1.303000	-0.049363
1.303500	-0.034562
1.304000	-0.018845
1.304500	-0.005875
1.305000	-0.000076
1.305500	-0.006485
1.306000	-0.023575
1.306500	-0.048905
1.307000	-0.082475
1.307500	-0.118486
1.308000	-0.143511
1.308500	-0.151293
1.309000	-0.141375
1.309500	-0.122911
1.310000	-0.107195
1.310500	-0.099413
1.311000	-0.097734
1.311500	-0.102464
1.312000	-0.111772
1.312500	-0.119707
1.313000	-0.124437
1.313500	-0.129168
1.314000	-0.137102
1.314500	-0.144884
1.315000	-0.150225
1.315500	-0.152056
1.316000	-0.148394
1.316500	-0.136187
1.317000	-0.115740
1.317500	-0.089952
1.318000	-0.069810
1.318500	-0.063859
1.319000	-0.071336
1.319500	-0.083543
1.320000	-0.094377
1.320500	-0.100175
1.321000	-0.103075
1.321500	-0.102769
1.322000	-0.097429
1.322500	-0.086442
1.323000	-0.072404
1.323500	-0.060807
1.324000	-0.055924
1.324500	-0.054551
1.325000	-0.052109
1.325500	-0.044327
1.326000	-0.034867
1.326500	-0.029374
1.327000	-0.032120
1.327500	-0.042649
1.328000	-0.055772
1.328500	-0.069047
1.329000	-0.082627
1.329500	-0.097124
1.330000	-0.110704
1.330500	-0.123369
1.331000	-0.134661
1.331500	-0.140764
1.332000	-0.138628
1.332500	-0.127031
1.333000	-0.112840
1.333500	-0.103990
1.334000	-0.104601
1.334500	-0.111314
1.335000	-0.121996
1.335500	-0.132830
1.336000	-0.142901
1.336500	-0.149309
1.337000	-0.150072
1.337500	-0.145952
1.338000	-0.137102
1.338500	-0.122148
1.339000	-0.104143
1.339500	-0.093767
1.340000	-0.099107
1.340500	-0.111467
1.341000	-0.116045
1.341500	-0.104753
1.342000	-0.081407
1.342500	-0.057145
1.343000	-0.036698
1.343500	-0.023270
1.344000	-0.016251
1.344500	-0.014267
1.345000	-0.016556
1.345500	-0.021134
1.346000	-0.026017
1.346500	-0.028611
1.347000	-0.026017
1.347500	-0.022049
1.348000	-0.024033
1.348500	-0.029831
1.349000	-0.032120
1.349500	-0.031968
1.350000	-0.036851
1.350500	-0.050431
1.351000	-0.069505
1.351500	-0.088731
1.352000	-0.100481
1.352500	-0.094682
1.353000	-0.071946
1.353500	-0.045090
1.354000	-0.025101
1.354500	-0.007858
1.355000	0.018387
1.355500	0.055772
1.356000	0.098802
1.356500	0.135119
1.357000	0.149767
1.357500	0.144274
1.358000	0.135576
1.358500	0.134203
1.359000	0.141833
1.359500	0.149462
1.360000	0.149767
1.360500	0.140307
1.361000	0.112841
1.361500	0.065843
1.362000	0.005722
1.362500	-0.053178
1.363000	-0.095293
1.363500	-0.116808
1.364000	-0.126421
1.364500	-0.140917
1.365000	-0.164874
1.365500	-0.185016
1.366000	-0.191272
1.366500	-0.185931
1.367000	-0.176013
1.367500	-0.163958
1.368000	-0.149615
1.368500	-0.130693
1.369000	-0.109789
1.369500	-0.090257
1.370000	-0.079423
1.370500	-0.078660
1.371000	-0.077745
1.371500	-0.072709
1.372000	-0.071183
1.372500	-0.075303
1.373000	-0.084001
1.373500	-0.097734
1.374000	-0.115892
1.374500	-0.138933
1.375000	-0.167315
1.375500	-0.196612
1.376000	-0.222858
1.376500	-0.244526
1.377000	-0.253834
1.377500	-0.247578
1.378000	-0.231861
1.378500	-0.216602
1.379000	-0.205615
1.379500	-0.195697
1.380000	-0.187152
1.380500	-0.177081
1.381000	-0.162127
1.381500	-0.147784
1.382000	-0.138018
1.382500	-0.134050
1.383000	-0.132830
1.383500	-0.135576
1.384000	-0.140154
1.384500	-0.142138
1.385000	-0.136644
1.385500	-0.121233
1.386000	-0.104753
1.386500	-0.095293
1.387000	-0.091020
1.387500	-0.091783
1.388000	-0.097734
1.388500	-0.106279
1.389000	-0.117266
1.389500	-0.135119
1.390000	-0.163653
1.390500	-0.202563
1.391000	-0.243763
1.391500	-0.273518
1.392000	-0.292439
1.392500	-0.306630
1.393000	-0.311208
1.393500	-0.302663
1.394000	-0.286641
1.394500	-0.270466
1.395000	-0.252308
1.395500	-0.233234
1.396000	-0.214313
1.396500	-0.197375
1.397000	-0.182269
1.397500	-0.172198
1.398000	-0.169604
1.398500	-0.172198
1.399000	-0.172198
1.399500	-0.165179
1.400000	-0.156023
1.400500	-0.150378
1.401000	-0.151446
1.401500	-0.156176
1.402000	-0.159228
1.402500	-0.158617
1.403000	-0.152056
1.403500	-0.138628
1.404000	-0.122454
1.404500	-0.113909
1.405000	-0.117113
1.405500	-0.128710
1.406000	-0.146258
1.406500	-0.168536
1.407000	-0.194629
1.407500	-0.220416
1.408000	-0.239795
1.408500	-0.245594
1.409000	-0.237507
1.409500	-0.215991
1.410000	-0.188983
1.410500	-0.170977
1.411000	-0.169604
1.411500	-0.183947
1.412000	-0.208209
1.412500	-0.235676
1.413000	-0.256733
1.413500	-0.260853
1.414000	-0.248035
1.414500	-0.231708
1.415000	-0.222858
1.415500	-0.216754
1.416000	-0.204547
1.416500	-0.184710
1.417000	-0.164111
1.417500	-0.150530
1.418000	-0.141680
1.418500	-0.132830
1.419000	-0.122454
1.419500	-0.117876
1.420000	-0.125505
1.420500	-0.140764
1.421000	-0.151141
1.421500	-0.150683
1.422000	-0.148852
1.422500	-0.152972
1.423000	-0.162127
1.423500	-0.167468
1.424000	-0.162432
1.424500	-0.153124
1.425000	-0.147631
1.425500	-0.148241
1.426000	-0.151903
1.426500	-0.155566
1.427000	-0.158160
1.427500	-0.161669
1.428000	-0.164874
1.428500	-0.166247
1.429000	-0.167620
1.429500	-0.173114
1.430000	-0.182574
1.430500	-0.193103
1.431000	-0.200122
1.431500	-0.203632
1.432000	-0.206378
1.432500	-0.206378
1.433000	-0.202106
1.433500	-0.195392
1.434000	-0.185626
1.434500	-0.174334
1.435000	-0.165789
1.435500	-0.162432
1.436000	-0.163043
1.436500	-0.164263
1.437000	-0.166857
1.437500	-0.167315
1.438000	-0.164111
1.438500	-0.156329
1.439000	-0.147784
1.439500	-0.141833
1.440000	-0.140459
1.440500	-0.140154
1.441000	-0.138628
1.441500	-0.140612
1.442000	-0.149767
1.442500	-0.164721
1.443000	-0.176471
1.443500	-0.177844
1.444000	-0.169757
1.444500	-0.161059
1.445000	-0.160906
1.445500	-0.169757
1.446000	-0.181506
1.446500	-0.186847
1.447000	-0.181048
1.447500	-0.167315
1.448000	-0.152972
1.448500	-0.140612
1.449000	-0.133135
1.449500	-0.132830
1.450000	-0.138933
1.450500	-0.149615
1.451000	-0.160143
1.451500	-0.167468
1.452000	-0.165942
1.452500	-0.155108
1.453000	-0.142901
1.453500	-0.137713
1.454000	-0.139391
1.454500	-0.145190
1.455000	-0.150988
1.455500	-0.153582
1.456000	-0.151903
1.456500	-0.146715
1.457000	-0.139239
1.457500	-0.134813
1.458000	-0.138018
1.458500	-0.145037
1.459000	-0.151446
1.459500	-0.157244
1.460000	-0.161974
1.460500	-0.165026
1.461000	-0.165789
1.461500	-0.165331
1.462000	-0.164874
1.462500	-0.167163
1.463000	-0.173571
1.463500	-0.181201
1.464000	-0.185473
1.464500	-0.184558
1.465000	-0.183490
1.465500	-0.183337
1.466000	-0.184253
1.466500	-0.186236
1.467000	-0.185321
1.467500	-0.180896
1.468000	-0.172808
1.468500	-0.162127
1.469000	-0.152972
1.469500	-0.151751
1.470000	-0.160296
1.470500	-0.174487
1.471000	-0.185168
1.471500	-0.189593
1.472000	-0.189441
1.472500	-0.184558
1.473000	-0.180133
1.473500	-0.178454
1.474000	-0.178607
1.474500	-0.179370
1.475000	-0.179065
1.475500	-0.178302
1.476000	-0.177081
1.476500	-0.174639
1.477000	-0.172198
1.477500	-0.171740
1.478000	-0.173724
1.478500	-0.175555
1.479000	-0.176165
1.479500	-0.172808
1.480000	-0.168994
1.480500	-0.169757
1.481000	-0.175402
1.481500	-0.180743
1.482000	-0.181048
1.482500	-0.178912
1.483000	-0.176623
1.483500	-0.172198
1.484000	-0.166857
1.484500	-0.161669
1.485000	-0.158160
1.485500	-0.156329
1.486000	-0.154345
1.486500	-0.148852
1.487000	-0.139239
1.487500	-0.130999
1.488000	-0.129625
1.488500	-0.135882
1.489000	-0.144427
1.489500	-0.149920
1.490000	-0.149920
1.490500	-0.145952
1.491000	-0.137713
1.491500	-0.125200
1.492000	-0.112383
1.492500	-0.109026
1.493000	-0.116960
1.493500	-0.128862
1.494000	-0.140764
1.494500	-0.152972
1.495000	-0.164111
1.495500	-0.174334
1.496000	-0.180743
1.496500	-0.182879
1.497000	-0.181201
1.497500	-0.179828
1.498000	-0.179217
1.498500	-0.176471
1.499000	-0.170062
1.499500	-0.158617
1.500000	-0.146563
1.500500	-0.138476
1.501000	-0.135271
1.501500	-0.134050
1.502000	-0.133135
1.502500	-0.134966
1.503000	-0.140307
1.503500	-0.144427
1.504000	-0.144274
1.504500	-0.141070
1.505000	-0.136797
1.505500	-0.133135
1.506000	-0.131151
1.506500	-0.131609
1.507000	-0.133440
1.507500	-0.136797
1.508000	-0.139849
1.508500	-0.138323
1.509000	-0.130693
1.509500	-0.121843
1.510000	-0.115892
1.510500	-0.113909
1.511000	-0.117876
1.511500	-0.128252
1.512000	-0.141375
1.512500	-0.149462
1.513000	-0.151141
1.513500	-0.150530
1.514000	-0.149309
1.514500	-0.147478
1.515000	-0.143816
1.515500	-0.138628
1.516000	-0.136492
1.516500	-0.139544
1.517000	-0.146563
1.517500	-0.154803
1.518000	-0.164416
1.518500	-0.174639
1.519000	-0.180438
1.519500	-0.179675
1.520000	-0.175555
1.520500	-0.172656
1.521000	-0.171435
1.521500	-0.169757
1.522000	-0.166400
1.522500	-0.162127
1.523000	-0.157092
1.523500	-0.151446
1.524000	-0.145800
1.524500	-0.141527
1.525000	-0.139544
1.525500	-0.141680
1.526000	-0.146715
1.526500	-0.152666
1.527000	-0.156481
1.527500	-0.161211
1.528000	-0.168078
1.528500	-0.175402
1.529000	-0.180438
1.529500	-0.182727
1.530000	-0.181964
1.530500	-0.178454
1.531000	-0.173571
1.531500	-0.169604
1.532000	-0.166857
1.532500	-0.164874
1.533000	-0.162585
1.533500	-0.160601
1.534000	-0.159838
1.534500	-0.160296
1.535000	-0.161974
1.535500	-0.161974
1.536000	-0.158007
1.536500	-0.149920
1.537000	-0.139086
1.537500	-0.127947
1.538000	-0.118181
1.538500	-0.111925
1.539000	-0.109483
1.539500	-0.110857
1.540000	-0.113146
1.540500	-0.114214
1.541000	-0.116045
1.541500	-0.119554
1.542000	-0.125200
1.542500	-0.131456
1.543000	-0.136339
1.543500	-0.135576
1.544000	-0.132677
1.544500	-0.134356
1.545000	-0.142595
1.545500	-0.153277
1.546000	-0.162890
1.546500	-0.168994
1.547000	-0.170062
1.547500	-0.167010
1.548000	-0.162127
1.548500	-0.156329
1.549000	-0.151446
1.549500	-0.145342
1.550000	-0.138933
1.550500	-0.131914
1.551000	-0.124895
1.551500	-0.119554
1.552000	-0.116960
1.552500	-0.117876
1.553000	-0.121691
1.553500	-0.125811
1.554000	-0.128405
1.554500	-0.128252
1.555000	-0.125811
1.555500	-0.124437
1.556000	-0.125811
1.556500	-0.131914
1.557000	-0.142290
1.557500	-0.152666
1.558000	-0.159380
1.558500	-0.163043
1.559000	-0.165179
1.559500	-0.167773
1.560000	-0.170214
1.560500	-0.168994
1.561000	-0.164874
1.561500	-0.159075
1.562000	-0.153429
1.562500	-0.150225
1.563000	-0.149157
1.563500	-0.149615
1.564000	-0.152514
1.564500	-0.155260
1.565000	-0.154803
1.565500	-0.147936
1.566000	-0.139544
1.566500	-0.135424
1.567000	-0.138628
1.567500	-0.149309
1.568000	-0.162280
1.568500	-0.172351
1.569000	-0.176165
1.569500	-0.171893
1.570000	-0.159533
1.570500	-0.145037
1.571000	-0.134966
1.571500	-0.133593
1.572000	-0.139239
1.572500	-0.146258
1.573000	-0.149004
1.573500	-0.146868
1.574000	-0.141680
1.574500	-0.134966
1.575000	-0.125353
1.575500	-0.115282
1.576000	-0.108568
1.576500	-0.105058
1.577000	-0.107500
1.577500	-0.117266
1.578000	-0.130846
1.578500	-0.142901
1.579000	-0.149309
1.579500	-0.150988
1.580000	-0.152361
1.580500	-0.156481
1.581000	-0.162737
1.581500	-0.167315
1.582000	-0.170062
1.582500	-0.170977
1.583000	-0.168841
1.583500	-0.162127
1.584000	-0.152514
1.584500	-0.144884
1.585000	-0.141833
1.585500	-0.141833
1.586000	-0.141680
1.586500	-0.138323
1.587000	-0.132525
1.587500	-0.126268
1.588000	-0.119249
1.588500	-0.113298
1.589000	-0.109636
1.589500	-0.109178
1.590000	-0.110857
1.590500	-0.113603
1.591000	-0.118944
1.591500	-0.127642
1.592000	-0.138323
1.592500	-0.147936
1.593000	-0.151446
1.593500	-0.147326
1.594000	-0.138018
1.594500	-0.129320
1.595000	-0.123827
1.595500	-0.121538
1.596000	-0.119097
1.596500	-0.115434
1.597000	-0.111162
1.597500	-0.105363
1.598000	-0.096971
1.598500	-0.088731
1.599000	-0.082933
1.599500	-0.078508
1.600000	-0.076371
1.600500	-0.076982
1.601000	-0.075456
1.601500	-0.070573
1.602000	-0.066758
1.602500	-0.070878
1.603000	-0.084611
1.603500	-0.101244
1.604000	-0.113146
1.604500	-0.118334
1.605000	-0.119707
1.605500	-0.121080
1.606000	-0.122301
1.606500	-0.123979
1.607000	-0.124895
1.607500	-0.122606
1.608000	-0.118486
1.608500	-0.114214
1.609000	-0.109026
1.609500	-0.104448
1.610000	-0.104906
1.610500	-0.108415
1.611000	-0.109941
1.611500	-0.108110
1.612000	-0.103838
1.612500	-0.100175
1.613000	-0.098650
1.613500	-0.100481
1.614000	-0.103380
1.614500	-0.106432
1.615000	-0.112688
1.615500	-0.128557
1.616000	-0.146715
1.616500	-0.149615
1.617000	-0.131456
1.617500	-0.104753
1.618000	-0.083390
1.618500	-0.076371
1.619000	-0.087816
1.619500	-0.112383
1.620000	-0.138628
1.620500	-0.156481
1.621000	-0.167315
1.621500	-0.176165
1.622000	-0.181353
1.622500	-0.179980
1.623000	-0.175402
1.623500	-0.169146
1.624000	-0.163043
1.624500	-0.159380
1.625000	-0.158770
1.625500	-0.161211
1.626000	-0.164874
1.626500	-0.165026
1.627000	-0.160754
1.627500	-0.156023
1.628000	-0.152514
1.628500	-0.151751
1.629000	-0.155260
1.629500	-0.162432
1.630000	-0.169146
1.630500	-0.171282
1.631000	-0.169146
1.631500	-0.164568
1.632000	-0.157549
1.632500	-0.151598
1.633000	-0.149004
1.633500	-0.149004
1.634000	-0.148699
1.634500	-0.147631
1.635000	-0.144579
1.635500	-0.141527
1.636000	-0.136950
1.636500	-0.129473
1.637000	-0.120928
1.637500	-0.114671
1.638000	-0.111162
1.638500	-0.109789
1.639000	-0.110246
1.639500	-0.112840
1.640000	-0.115740
1.640500	-0.117266
1.641000	-0.116350
1.641500	-0.115129
1.642000	-0.114824
1.642500	-0.115282
1.643000	-0.116655
1.643500	-0.119860
1.644000	-0.124437
1.644500	-0.128252
1.645000	-0.131914
1.645500	-0.134966
1.646000	-0.137560
1.646500	-0.138476
1.647000	-0.137102
1.647500	-0.131304
1.648000	-0.123064
1.648500	-0.115129
1.649000	-0.109636
1.649500	-0.104753
1.650000	-0.098497
1.650500	-0.091020
1.651000	-0.086442
1.651500	-0.084611
1.652000	-0.088121
1.652500	-0.096208
1.653000	-0.105058
1.653500	-0.111467
1.654000	-0.113451
1.654500	-0.110399
1.655000	-0.106279
1.655500	-0.101854
1.656000	-0.100481
1.656500	-0.103380
1.657000	-0.107347
1.657500	-0.108568
1.658000	-0.107500
1.658500	-0.106279
1.659000	-0.106584
1.659500	-0.108415
1.660000	-0.109941
1.660500	-0.112383
1.661000	-0.113603
1.661500	-0.114519
1.662000	-0.116960
1.662500	-0.121843
1.663000	-0.127489
1.663500	-0.134050
1.664000	-0.138170
1.664500	-0.138933
1.665000	-0.134203
1.665500	-0.125200
1.666000	-0.113603
1.666500	-0.103685
1.667000	-0.100175
1.667500	-0.102617
1.668000	-0.108720
1.668500	-0.112993
1.669000	-0.113909
1.669500	-0.113909
1.670000	-0.112993
1.670500	-0.110094
1.671000	-0.104295
1.671500	-0.098955
1.672000	-0.097887
1.672500	-0.099107
1.673000	-0.103075
1.673500	-0.108415
1.674000	-0.113756
1.674500	-0.120165
1.675000	-0.129625
1.675500	-0.139239
1.676000	-0.145037
1.676500	-0.145037
1.677000	-0.143664
1.677500	-0.145800
1.678000	-0.149309
1.678500	-0.148852
1.679000	-0.141375
1.679500	-0.130999
1.680000	-0.123064
1.680500	-0.118639
1.681000	-0.118334
1.681500	-0.121233
1.682000	-0.124895
1.682500	-0.126879
1.683000	-0.125048
1.683500	-0.119097
1.684000	-0.109483
1.684500	-0.098344
1.685000	-0.087968
1.685500	-0.079728
1.686000	-0.075761
1.686500	-0.073930
1.687000	-0.069657
1.687500	-0.061265
1.688000	-0.052872
1.688500	-0.049516
1.689000	-0.053788
1.689500	-0.063401
1.690000	-0.074998
1.690500	-0.084459
1.691000	-0.090410
1.691500	-0.093156
1.692000	-0.093614
1.692500	-0.096513
1.693000	-0.103532
1.693500	-0.112077
1.694000	-0.118944
1.694500	-0.122606
1.695000	-0.123369
1.695500	-0.121233
1.696000	-0.116045
1.696500	-0.108568
1.697000	-0.102464
1.697500	-0.099565
1.698000	-0.099107
1.698500	-0.102617
1.699000	-0.108110
1.699500	-0.109941
1.700000	-0.110552
1.700500	-0.116655
1.701000	-0.128557
1.701500	-0.140459
1.702000	-0.149004
1.702500	-0.152666
1.703000	-0.150988
1.703500	-0.143511
1.704000	-0.134203
1.704500	-0.126116
1.705000	-0.120775
1.705500	-0.118486
1.706000	-0.118486
1.706500	-0.119097
1.707000	-0.116197
1.707500	-0.107958
1.708000	-0.098955
1.708500	-0.097124
1.709000	-0.100786
1.709500	-0.105363
1.710000	-0.108720
1.710500	-0.111620
1.711000	-0.114214
1.711500	-0.117723
1.712000	-0.120928
1.712500	-0.123369
1.713000	-0.124742
1.713500	-0.124590
1.714000	-0.122454
1.714500	-0.118791
1.715000	-0.114061
1.715500	-0.110857
1.716000	-0.111162
1.716500	-0.112688
1.717000	-0.113146
1.717500	-0.112077
1.718000	-0.110552
1.718500	-0.107805
1.719000	-0.103075
1.719500	-0.101091
1.720000	-0.103990
1.720500	-0.109331
1.721000	-0.114977
1.721500	-0.121538
1.722000	-0.130693
1.722500	-0.142901
1.723000	-0.153582
1.723500	-0.158770
1.724000	-0.159991
1.724500	-0.158617
1.725000	-0.152666
1.725500	-0.142443
1.726000	-0.130693
1.726500	-0.120317
1.727000	-0.113451
1.727500	-0.110246
1.728000	-0.110704
1.728500	-0.115129
1.729000	-0.126116
1.729500	-0.141680
1.730000	-0.156023
1.730500	-0.163653
1.731000	-0.164721
1.731500	-0.158770
1.732000	-0.148547
1.732500	-0.136187
1.733000	-0.124285
1.733500	-0.115892
1.734000	-0.109026
1.734500	-0.102922
1.735000	-0.098192
1.735500	-0.094682
1.736000	-0.093919
1.736500	-0.093767
1.737000	-0.096513
1.737500	-0.101701
1.738000	-0.106126
1.738500	-0.106279
1.739000	-0.102769
1.739500	-0.099413
1.740000	-0.098650
1.740500	-0.101396
1.741000	-0.108415
1.741500	-0.118486
1.742000	-0.129625
1.742500	-0.140764
1.743000	-0.149767
1.743500	-0.156176
1.744000	-0.160601
1.744500	-0.161822
1.745000	-0.159686
1.745500	-0.156329
1.746000	-0.154345
1.746500	-0.154803
1.747000	-0.156329
1.747500	-0.159991
1.748000	-0.165331
1.748500	-0.169757
1.749000	-0.172808
1.749500	-0.174182
1.750000	-0.170367
1.750500	-0.162280
1.751000	-0.153887
1.751500	-0.146258
1.752000	-0.140764
1.752500	-0.135576
1.753000	-0.129625
1.753500	-0.123522
1.754000	-0.117113
1.754500	-0.109026
1.755000	-0.100023
1.755500	-0.093614
1.756000	-0.090104
1.756500	-0.091936
1.757000	-0.100023
1.757500	-0.108873
1.758000	-0.113298
1.758500	-0.115129
1.759000	-0.116350
1.759500	-0.116503
1.760000	-0.115282
1.760500	-0.112688
1.761000	-0.110399
1.761500	-0.107805
1.762000	-0.106279
1.762500	-0.107652
1.763000	-0.111162
1.763500	-0.116808
1.764000	-0.123064
1.764500	-0.125658
1.765000	-0.123979
1.765500	-0.122301
1.766000	-0.126268
1.766500	-0.135882
1.767000	-0.145647
1.767500	-0.148547
1.768000	-0.143969
1.768500	-0.132525
1.769000	-0.116960
1.769500	-0.102464
1.770000	-0.095598
1.770500	-0.094072
1.771000	-0.093004
1.771500	-0.090257
1.772000	-0.086290
1.772500	-0.084306
1.773000	-0.085374
1.773500	-0.088121
1.774000	-0.091020
1.774500	-0.093461
1.775000	-0.096513
1.775500	-0.100023
1.776000	-0.104753
1.776500	-0.110857
1.777000	-0.116045
1.777500	-0.116655
1.778000	-0.110246
1.778500	-0.098497
1.779000	-0.084764
1.779500	-0.073320
1.780000	-0.066606
1.780500	-0.065080
1.781000	-0.067674
1.781500	-0.073625
1.782000	-0.083085
1.782500	-0.098955
1.783000	-0.119707
1.783500	-0.138628
1.784000	-0.150225
1.784500	-0.153735
1.785000	-0.151141
1.785500	-0.147631
1.786000	-0.148394
1.786500	-0.155718
1.787000	-0.163958
1.787500	-0.170672
1.788000	-0.174334
1.788500	-0.176928
1.789000	-0.179370
1.789500	-0.182879
1.790000	-0.188678
1.790500	-0.196612
1.791000	-0.205463
1.791500	-0.211414
1.792000	-0.213703
1.792500	-0.210040
1.793000	-0.199359
1.793500	-0.180285
1.794000	-0.155718
1.794500	-0.132525
1.795000	-0.116045
1.795500	-0.106737
1.796000	-0.102922
1.796500	-0.103380
1.797000	-0.109483
1.797500	-0.117418
1.798000	-0.120012
1.798500	-0.115434
1.799000	-0.107500
1.799500	-0.101701
1.800000	-0.102312
1.800500	-0.109178
1.801000	-0.117723
1.801500	-0.124437
1.802000	-0.130541
1.802500	-0.137713
1.803000	-0.138323
1.803500	-0.128252
1.804000	-0.112688
1.804500	-0.097887
1.805000	-0.085527
1.805500	-0.077440
1.806000	-0.072404
1.806500	-0.065080
1.807000	-0.052872
1.807500	-0.039444
1.808000	-0.031357
1.808500	-0.030899
1.809000	-0.038071
1.809500	-0.049973
1.810000	-0.062943
1.810500	-0.078508
1.811000	-0.098039
1.811500	-0.123217
1.812000	-0.146868
1.812500	-0.165789
1.813000	-0.181811
1.813500	-0.189593
1.814000	-0.180285
1.814500	-0.156939
1.815000	-0.128252
1.815500	-0.096208
1.816000	-0.061723
1.816500	-0.031052
1.817000	-0.016251
1.817500	-0.020829
1.818000	-0.028763
1.818500	-0.027542
1.819000	-0.024185
1.819500	-0.035019
1.820000	-0.055924
1.820500	-0.066300
1.821000	-0.059586
1.821500	-0.047989
1.822000	-0.051194
1.822500	-0.075761
1.823000	-0.112535
1.823500	-0.146868
1.824000	-0.169299
1.824500	-0.178302
1.825000	-0.179370
1.825500	-0.177081
1.826000	-0.171893
1.826500	-0.165179
1.827000	-0.157244
1.827500	-0.144121
1.828000	-0.132830
1.828500	-0.136339
1.829000	-0.152209
1.829500	-0.162890
1.830000	-0.159686
1.830500	-0.142595
1.831000	-0.121843
1.831500	-0.108720
1.832000	-0.107652
1.832500	-0.114977
1.833000	-0.125811
1.833500	-0.140459
1.834000	-0.160754
1.834500	-0.180285
1.835000	-0.199969
1.835500	-0.215534
1.836000	-0.211261
1.836500	-0.183184
1.837000	-0.146410
1.837500	-0.116197
1.838000	-0.098955
1.838500	-0.096056
1.839000	-0.104448
1.839500	-0.120928
1.840000	-0.139544
1.840500	-0.152361
1.841000	-0.156634
1.841500	-0.157549
1.842000	-0.156176
1.842500	-0.154040
1.843000	-0.153887
1.843500	-0.156329
1.844000	-0.162280
1.844500	-0.171893
1.845000	-0.181201
1.845500	-0.190051
1.846000	-0.200885
1.846500	-0.207294
1.847000	-0.199969
1.847500	-0.181659
1.848000	-0.161822
1.848500	-0.145037
1.849000	-0.131914
1.849500	-0.119097
1.850000	-0.100938
1.850500	-0.085069
1.851000	-0.079881
1.851500	-0.084001
1.852000	-0.092851
1.852500	-0.100633
1.853000	-0.102922
1.853500	-0.100175
1.854000	-0.098039
1.854500	-0.101549
1.855000	-0.111162
1.855500	-0.122148
1.856000	-0.125048
1.856500	-0.116655
1.857000	-0.100175
1.857500	-0.084306
1.858000	-0.078050
1.858500	-0.082475
1.859000	-0.094377
1.859500	-0.112230
1.860000	-0.130693
1.860500	-0.144579
1.861000	-0.153887
1.861500	-0.163348
1.862000	-0.170367
1.862500	-0.174945
1.863000	-0.180743
1.863500	-0.184405
1.864000	-0.188983
1.864500	-0.197528
1.865000	-0.209583
1.865500	-0.215839
1.866000	-0.208209
1.866500	-0.193103
1.867000	-0.182574
1.867500	-0.185931
1.868000	-0.199664
1.868500	-0.212177
1.869000	-0.218585
1.869500	-0.221027
1.870000	-0.217365
1.870500	-0.207446
1.871000	-0.194171
1.871500	-0.179522
1.872000	-0.159533
1.872500	-0.133745
1.873000	-0.115587
1.873500	-0.122759
1.874000	-0.154345
1.874500	-0.190967
1.875000	-0.211871
1.875500	-0.209430
1.876000	-0.193255
1.876500	-0.176928
1.877000	-0.161211
1.877500	-0.138933
1.878000	-0.107652
1.878500	-0.070268
1.879000	-0.028458
1.879500	0.005112
1.880000	0.023270
1.880500	0.030442
1.881000	0.034562
1.881500	0.035325
1.882000	0.029984
1.882500	0.020676
1.883000	0.016403
1.883500	0.006943
1.884000	-0.029374
1.884500	-0.083543
1.885000	-0.136797
1.885500	-0.177233
1.886000	-0.201953
1.886500	-0.209430
1.887000	-0.202869
1.887500	-0.189746
1.888000	-0.168231
1.888500	-0.131762
1.889000	-0.084764
1.889500	-0.043259
1.890000	-0.023270
1.890500	-0.030594
1.891000	-0.053941
1.891500	-0.068284
1.892000	-0.053483
1.892500	-0.017319
1.893000	0.013657
1.893500	0.017777
1.894000	-0.009537
1.894500	-0.062333
1.895000	-0.125963
1.895500	-0.183490
1.896000	-0.217975
1.896500	-0.226215
1.897000	-0.219501
1.897500	-0.208820
1.898000	-0.192035
1.898500	-0.159838
1.899000	-0.116655
1.899500	-0.081102
1.900000	-0.065080
1.900500	-0.062486
1.901000	-0.064774
1.901500	-0.070878
1.902000	-0.085832
1.902500	-0.112077
1.903000	-0.144732
1.903500	-0.176623
1.904000	-0.207904
1.904500	-0.235981
1.905000	-0.257801
1.905500	-0.269245
1.906000	-0.267109
1.906500	-0.252155
1.907000	-0.223468
1.907500	-0.184710
1.908000	-0.136034
1.908500	-0.081559
1.909000	-0.038529
1.909500	-0.013352
1.910000	0.009690
1.910500	0.044633
1.911000	0.087816
1.911500	0.128863
1.912000	0.159533
1.912500	0.178607
1.913000	0.187915
1.913500	0.190967
1.914000	0.194324
1.914500	0.201038
1.915000	0.199970
1.915500	0.180743
1.916000	0.151293
1.916500	0.117723
1.917000	0.073472
1.917500	0.018845
1.918000	-0.024491
1.918500	-0.038376
1.919000	-0.026932
1.919500	-0.002365
1.920000	0.026780
1.920500	0.053941
1.921000	0.072557
1.921500	0.064622
1.922000	0.020371
1.922500	-0.038376
1.923000	-0.102617
1.923500	-0.170062
1.924000	-0.231556
1.924500	-0.278096
1.925000	-0.304494
1.925500	-0.305562
1.926000	-0.283894
1.926500	-0.260853
1.927000	-0.261921
1.927500	-0.292592
1.928000	-0.339132
1.928500	-0.387808
1.929000	-0.415122
1.929500	-0.404135
1.930000	-0.355459
1.930500	-0.289235
1.931000	-0.222248
1.931500	-0.163348
1.932000	-0.105821
1.932500	-0.042496
1.933000	0.020066
1.933500	0.070878
1.934000	0.096361
1.934500	0.091478
1.935000	0.063096
1.935500	0.014878
1.936000	-0.052567
1.936500	-0.128252
1.937000	-0.190356
1.937500	-0.220722
1.938000	-0.213550
1.938500	-0.176776
1.939000	-0.119402
1.939500	-0.047989
1.940000	0.026169
1.940500	0.093919
1.941000	0.141833
1.941500	0.153735
1.942000	0.120623
1.942500	0.053941
1.943000	-0.026932
1.943500	-0.105974
1.944000	-0.157397
1.944500	-0.170367
1.945000	-0.159991
1.945500	-0.146410
1.946000	-0.137713
1.946500	-0.128710
1.947000	-0.103838
1.947500	-0.061112
1.948000	-0.025864
1.948500	-0.016861
1.949000	-0.021439
1.949500	-0.023880
1.950000	-0.022660
1.950500	-0.025254
1.951000	-0.035782
1.951500	-0.051194
1.952000	-0.071488
1.952500	-0.089799
1.953000	-0.095750
1.953500	-0.082170
1.954000	-0.057145
1.954500	-0.033646
1.955000	-0.019913
1.955500	-0.015946
1.956000	-0.024338
1.956500	-0.043412
1.957000	-0.068284
1.957500	-0.098650
1.958000	-0.126726
1.958500	-0.134050
1.959000	-0.116045
1.959500	-0.085374
1.960000	-0.061265
1.960500	-0.050736
1.961000	-0.040360
1.961500	-0.013504
1.962000	0.030137
1.962500	0.074693
1.963000	0.096361
1.963500	0.090562
1.964000	0.073930
1.964500	0.053330
1.965000	0.024033
1.965500	-0.005875
1.966000	-0.011368
1.966500	0.014420
1.967000	0.058824
1.967500	0.103227
1.968000	0.141528
1.968500	0.177691
1.969000	0.207446
1.969500	0.217060
1.970000	0.199207
1.970500	0.162738
1.971000	0.122606
1.971500	0.092699
1.972000	0.074540
1.972500	0.059739
1.973000	0.028306
1.973500	-0.025101
1.974000	-0.089036
1.974500	-0.145190
1.975000	-0.180743
1.975500	-0.189898
1.976000	-0.164111
1.976500	-0.105669
1.977000	-0.038987
1.977500	0.010910
1.978000	0.033188
1.978500	0.029526
1.979000	0.010910
1.979500	-0.011063
1.980000	-0.035019
1.980500	-0.051957
1.981000	-0.056840
1.981500	-0.052109
1.982000	-0.037766
1.982500	-0.016251
1.983000	0.005722
1.983500	0.029526
1.984000	0.061265
1.984500	0.101244
1.985000	0.134661
1.985500	0.147326
1.986000	0.145037
1.986500	0.146258
1.987000	0.149462
1.987500	0.129778
1.988000	0.081102
1.988500	0.028000
1.989000	-0.002518
1.989500	-0.011215
1.990000	-0.019608
1.990500	-0.047379
1.991000	-0.099260
1.991500	-0.159686
1.992000	-0.203937
1.992500	-0.210346
1.993000	-0.185016
1.993500	-0.136797
1.994000	-0.068894
1.994500	0.012589
1.995000	0.092699
1.995500	0.146716
1.996000	0.168383
1.996500	0.174487
1.997000	0.181811
1.997500	0.184100
1.998000	0.161669
1.998500	0.114824
1.999000	0.056077
1.999500	0.011826
2.000000	-0.005264
2.000500	-0.007401
2.001000	-0.003586
2.001500	-0.000381
2.002000	-0.002518
2.002500	-0.003891
2.003000	0.009842
2.003500	0.048142
2.004000	0.094377
2.004500	0.127184
2.005000	0.146716
2.005500	0.150073
2.006000	0.131457
2.006500	0.106127
2.007000	0.100328
2.007500	0.110247
2.008000	0.114366
2.008500	0.103685
2.009000	0.079576
2.009500	0.048448
2.010000	0.018082
2.010500	0.000687
2.011000	0.003281
2.011500	0.017319
2.012000	0.026017
2.012500	0.009995
2.013000	-0.029374
2.013500	-0.067826
2.014000	-0.084916
2.014500	-0.074693
2.015000	-0.044633
2.015500	-0.009079
2.016000	0.021592
2.016500	0.053941
2.017000	0.103685
2.017500	0.167926
2.018000	0.227131
2.018500	0.266346
2.019000	0.267109
2.019500	0.200733
2.020000	0.071946
2.020500	-0.066300
2.021000	-0.161364
2.021500	-0.196155
2.022000	-0.171435
2.022500	-0.114671
2.023000	-0.069047
2.023500	-0.050278
2.024000	-0.046616
2.024500	-0.049821
2.025000	-0.066300
2.025500	-0.092546
2.026000	-0.118791
2.026500	-0.134356
2.027000	-0.129473
2.027500	-0.107500
2.028000	-0.080034
2.028500	-0.049516
2.029000	-0.020829
2.029500	-0.002518
2.030000	-0.002823
2.030500	-0.015640
2.031000	-0.028763
2.031500	-0.037461
2.032000	-0.026627
2.032500	0.012284
2.033000	0.062944
2.033500	0.100939
2.034000	0.108873
2.034500	0.082933
2.035000	0.046616
2.035500	0.024949
2.036000	0.017319
2.036500	0.023117
2.037000	0.046464
2.037500	0.094682
2.038000	0.166247
2.038500	0.247425
2.039000	0.313039
2.039500	0.339895
2.040000	0.317311
2.040500	0.257496
2.041000	0.194019
2.041500	0.160296
2.042000	0.150073
2.042500	0.131151
2.043000	0.094530
2.043500	0.047074
2.044000	-0.003128
2.044500	-0.038681
2.045000	-0.032883
2.045500	0.000534
2.046000	0.022660
2.046500	0.020829
2.047000	0.000839
2.047500	-0.017014
2.048000	-0.004044
2.048500	0.054551
2.049000	0.145190
2.049500	0.219654
2.050000	0.238117
2.050500	0.219349
2.051000	0.206531
2.051500	0.230640
2.052000	0.295338
2.052500	0.378042
2.053000	0.441062
2.053500	0.430839
2.054000	0.302663
2.054500	0.089494
2.055000	-0.129778
2.055500	-0.297017
2.056000	-0.399252
2.056500	-0.452964
2.057000	-0.472190
2.057500	-0.456626
2.058000	-0.402304
2.058500	-0.316243
2.059000	-0.214923
2.059500	-0.130388
2.060000	-0.084611
2.060500	-0.065995
2.061000	-0.048753
2.061500	-0.019608
2.062000	0.023423
2.062500	0.067064
2.063000	0.096971
2.063500	0.108415
2.064000	0.104295
2.064500	0.097124
2.065000	0.103533
2.065500	0.129320
2.066000	0.162585
2.066500	0.195239
2.067000	0.230945
2.067500	0.268483
2.068000	0.312734
2.068500	0.365835
2.069000	0.406577
2.069500	0.390555
2.070000	0.290608
2.070500	0.128100
2.071000	-0.049210
2.071500	-0.206989
2.072000	-0.321584
2.072500	-0.374075
2.073000	-0.357137
2.073500	-0.278401
2.074000	-0.169146
2.074500	-0.071641
2.075000	0.011826
2.075500	0.103990
2.076000	0.204242
2.076500	0.276417
2.077000	0.282979
2.077500	0.209430
2.078000	0.078508
2.078500	-0.065690
2.079000	-0.194018
2.079500	-0.298238
2.080000	-0.368429
2.080500	-0.404135
2.081000	-0.414969
2.081500	-0.396048
2.082000	-0.342183
2.082500	-0.262837
2.083000	-0.183337
2.083500	-0.114824
2.084000	-0.052109
2.084500	0.009690
2.085000	0.063401
2.085500	0.076219
2.086000	0.030442
2.086500	-0.051346
2.087000	-0.126726
2.087500	-0.157549
2.088000	-0.120775
2.088500	-0.028153
2.089000	0.090257
2.089500	0.213703
2.090000	0.337453
2.090500	0.472801
2.091000	0.595331
2.091500	0.654078
2.092000	0.619745
2.092500	0.510033
2.093000	0.369802
2.093500	0.239490
2.094000	0.152209
2.094500	0.117723
2.095000	0.122301
2.095500	0.143511
2.096000	0.160449
2.096500	0.172351
2.097000	0.172046
2.097500	0.154345
2.098000	0.115587
2.098500	0.052262
2.099000	-0.032120
2.099500	-0.128557
2.100000	-0.217670
2.100500	-0.294575
2.101000	-0.368734
2.101500	-0.426566
2.102000	-0.444419
2.102500	-0.417105
2.103000	-0.361562
2.103500	-0.306477
2.104000	-0.271382
2.104500	-0.262989
2.105000	-0.281910
2.105500	-0.318685
2.106000	-0.350576
2.106500	-0.365377
2.107000	-0.358511
2.107500	-0.333944
2.108000	-0.298848
2.108500	-0.240558
2.109000	-0.151446
2.109500	-0.033951
2.110000	0.089799
2.110500	0.207446
2.111000	0.308156
2.111500	0.352102
2.112000	0.310445
2.112500	0.196155
2.113000	0.062944
2.113500	-0.034714
2.114000	-0.034562
2.114500	0.083696
2.115000	0.286183
2.115500	0.512932
2.116000	0.698634
2.116500	0.801480
2.117000	0.812314
2.117500	0.739376
2.118000	0.608301
2.118500	0.434806
2.119000	0.248341
2.119500	0.067216
2.120000	-0.133593
2.120500	-0.366751
2.121000	-0.610285
2.121500	-0.812467
2.122000	-0.905241
2.122500	-0.843442
2.123000	-0.658961
2.123500	-0.434958
2.124000	-0.238575
2.124500	-0.102312
2.125000	-0.016251
2.125500	0.046464
2.126000	0.103685
2.126500	0.158923
2.127000	0.220874
2.127500	0.290761
2.128000	0.376211
2.128500	0.488823
2.129000	0.626459
2.129500	0.762875
2.130000	0.862516
2.130500	0.891661
2.131000	0.799497
2.131500	0.572595
2.132000	0.245899
2.132500	-0.118791
2.133000	-0.436484
2.133500	-0.642176
2.134000	-0.719844
2.134500	-0.684901
2.135000	-0.586480
2.135500	-0.467002
2.136000	-0.329519
2.136500	-0.170062
2.137000	-0.013809
2.137500	0.088884
2.138000	0.102159
2.138500	0.045091
2.139000	-0.046311
2.139500	-0.140764
2.140000	-0.218585
2.140500	-0.285725
2.141000	-0.347372
2.141500	-0.378500
2.142000	-0.356680
2.142500	-0.312886
2.143000	-0.291524
2.143500	-0.300374
2.144000	-0.317769
2.144500	-0.314870
2.145000	-0.281147
2.145500	-0.218280
2.146000	-0.136797
2.146500	-0.038071
2.147000	0.067216
2.147500	0.143359
2.148000	0.166857
2.148500	0.140002
2.149000	0.073320
2.149500	-0.026322
2.150000	-0.170977
2.150500	-0.367513
2.151000	-0.574884
2.151500	-0.715114
2.152000	-0.767300
2.152500	-0.751888
2.153000	-0.685512
2.153500	-0.576257
2.154000	-0.445640
2.154500	-0.317922
2.155000	-0.206989
2.155500	-0.112688
2.156000	-0.039444
2.156500	0.010605
2.157000	0.040818
2.157500	0.062181
2.158000	0.081560
2.158500	0.118639
2.159000	0.185321
2.159500	0.268483
2.160000	0.344930
2.160500	0.370413
2.161000	0.321584
2.161500	0.207141
2.162000	0.030442
2.162500	-0.176623
2.163000	-0.345540
2.163500	-0.422751
2.164000	-0.389639
2.164500	-0.264515
2.165000	-0.100938
2.165500	0.061265
2.166000	0.201801
2.166500	0.285878
2.167000	0.263752
2.167500	0.117266
2.168000	-0.094072
2.168500	-0.252460
2.169000	-0.296712
2.169500	-0.250324
2.170000	-0.159838
2.170500	-0.057298
2.171000	0.051194
2.171500	0.165026
2.172000	0.275807
2.172500	0.366751
2.173000	0.404746
2.173500	0.378653
2.174000	0.296864
2.174500	0.165026
2.175000	-0.004654
2.175500	-0.179980
2.176000	-0.329976
2.176500	-0.424887
2.177000	-0.453880
2.177500	-0.441367
2.178000	-0.403067
2.178500	-0.344930
2.179000	-0.281147
2.179500	-0.200275
2.180000	-0.101396
2.180500	-0.029831
2.181000	-0.020676
2.181500	-0.066148
2.182000	-0.128557
2.182500	-0.185321
2.183000	-0.248188
2.183500	-0.316243
2.184000	-0.380789
2.184500	-0.444419
2.185000	-0.514763
2.185500	-0.575036
2.186000	-0.598230
2.186500	-0.582208
2.187000	-0.534905
2.187500	-0.473716
2.188000	-0.402304
2.188500	-0.287251
2.189000	-0.101549
2.189500	0.118944
2.190000	0.325551
2.190500	0.501640
2.191000	0.648280
2.191500	0.762570
2.192000	0.833066
2.192500	0.853513
2.193000	0.826658
2.193500	0.777829
2.194000	0.724422
2.194500	0.665065
2.195000	0.593042
2.195500	0.493095
2.196000	0.349966
2.196500	0.163500
2.197000	-0.053483
2.197500	-0.279622
2.198000	-0.467307
2.198500	-0.571069
2.199000	-0.586023
2.199500	-0.557641
2.200000	-0.536583
2.200500	-0.538720
2.201000	-0.555505
2.201500	-0.574273
2.202000	-0.567101
2.202500	-0.496605
2.203000	-0.356527
2.203500	-0.181659
2.204000	-0.013352
2.204500	0.137408
2.205000	0.261158
2.205500	0.347829
2.206000	0.405509
2.206500	0.434196
2.207000	0.411154
2.207500	0.325856
2.208000	0.205463
2.208500	0.073472
2.209000	-0.045701
2.209500	-0.151598
2.210000	-0.248646
2.210500	-0.325856
2.211000	-0.361410
2.211500	-0.354696
2.212000	-0.331655
2.212500	-0.317311
2.213000	-0.301594
2.213500	-0.271687
2.214000	-0.252460
2.214500	-0.258411
2.215000	-0.262379
2.215500	-0.223468
2.216000	-0.119554
2.216500	0.042039
2.217000	0.234302
2.217500	0.418174
2.218000	0.550012
2.218500	0.618219
2.219000	0.649500
2.219500	0.663233
2.220000	0.636225
2.220500	0.549249
2.221000	0.412070
2.221500	0.251087
2.222000	0.107652
2.222500	0.003128
2.223000	-0.073930
2.223500	-0.134050
2.224000	-0.187762
2.224500	-0.251850
2.225000	-0.313802
2.225500	-0.345540
2.226000	-0.375753
2.226500	-0.438926
2.227000	-0.512932
2.227500	-0.566796
2.228000	-0.592431
2.228500	-0.600824
2.229000	-0.582360
2.229500	-0.524681
2.230000	-0.442893
2.230500	-0.366598
2.231000	-0.295796
2.231500	-0.215228
2.232000	-0.118334
2.232500	0.017014
2.233000	0.189136
2.233500	0.366293
2.234000	0.497520
2.234500	0.557031
2.235000	0.550469
2.235500	0.504387
2.236000	0.454795
2.236500	0.408866
2.237000	0.317311
2.237500	0.139544
2.238000	-0.103075
2.238500	-0.322042
2.239000	-0.446250
2.239500	-0.446860
2.240000	-0.334401
2.240500	-0.173724
2.241000	-0.015030
2.241500	0.141680
2.242000	0.282673
2.242500	0.380179
2.243000	0.434196
2.243500	0.460441
2.244000	0.456474
2.244500	0.384756
2.245000	0.206531
2.245500	-0.062333
2.246000	-0.382773
2.246500	-0.709621
2.247000	-0.981536
2.247500	-1.119480
2.248000	-1.076750
2.248500	-0.890440
2.249000	-0.636988
2.249500	-0.376821
2.250000	-0.139391
2.250500	0.058061
2.251000	0.191882
2.251500	0.232319
2.252000	0.184253
2.252500	0.097124
2.253000	0.049516
2.253500	0.074388
2.254000	0.126574
2.254500	0.182269
2.255000	0.244831
2.255500	0.298238
2.256000	0.319753
2.256500	0.313344
2.257000	0.292439
2.257500	0.263752
2.258000	0.251698
2.258500	0.256275
2.259000	0.244373
2.259500	0.202258
2.260000	0.155566
2.260500	0.133898
2.261000	0.123064
2.261500	0.115740
2.262000	0.109178
2.262500	0.094530
2.263000	0.071946
2.263500	0.046464
2.264000	0.012436
2.264500	-0.045090
2.265000	-0.139239
2.265500	-0.283589
2.266000	-0.453880
2.266500	-0.587243
2.267000	-0.632257
2.267500	-0.592889
2.268000	-0.525902
2.268500	-0.474937
2.269000	-0.438315
2.269500	-0.405814
2.270000	-0.366293
2.270500	-0.305257
2.271000	-0.232319
2.271500	-0.154650
2.272000	-0.044785
2.272500	0.092393
2.273000	0.210803
2.273500	0.284352
2.274000	0.331045
2.274500	0.381094
2.275000	0.416190
2.275500	0.409629
2.276000	0.372702
2.276500	0.346304
2.277000	0.372702
2.277500	0.461814
2.278000	0.576410
2.278500	0.651331
2.279000	0.628138
2.279500	0.499809
2.280000	0.302968
2.280500	0.090410
2.281000	-0.086442
2.281500	-0.204852
2.282000	-0.261005
2.282500	-0.243610
2.283000	-0.178607
2.283500	-0.100023
2.284000	-0.020676
2.284500	0.046159
2.285000	0.084459
2.285500	0.069200
2.286000	0.013810
2.286500	-0.041886
2.287000	-0.088884
2.287500	-0.147173
2.288000	-0.226215
2.288500	-0.314717
2.289000	-0.411002
2.289500	-0.494469
2.290000	-0.554894
2.290500	-0.582055
2.291000	-0.570001
2.291500	-0.501793
2.292000	-0.333791
2.292500	-0.057603
2.293000	0.258564
2.293500	0.527886
2.294000	0.714656
2.294500	0.799497
2.295000	0.757076
2.295500	0.603265
2.296000	0.388876
2.296500	0.166247
2.297000	-0.005264
2.297500	-0.096513
2.298000	-0.113909
2.298500	-0.102312
2.299000	-0.103838
2.299500	-0.128862
2.300000	-0.165179
2.300500	-0.199054
2.301000	-0.223468
2.301500	-0.234150
2.302000	-0.218585
2.302500	-0.184710
2.303000	-0.157397
2.303500	-0.152514
2.304000	-0.167010
2.304500	-0.199054
2.305000	-0.247883
2.305500	-0.297780
2.306000	-0.335775
2.306500	-0.366293
2.307000	-0.387045
2.307500	-0.381552
2.308000	-0.361715
2.308500	-0.333181
2.309000	-0.282826
2.309500	-0.205463
2.310000	-0.121233
2.310500	-0.067674
2.311000	-0.058671
2.311500	-0.049973
2.312000	-0.006790
2.312500	0.049058
2.313000	0.081712
2.313500	0.066758
2.314000	-0.002365
2.314500	-0.115740
2.315000	-0.234455
2.315500	-0.332875
2.316000	-0.400931
2.316500	-0.440757
2.317000	-0.452354
2.317500	-0.436484
2.318000	-0.392538
2.318500	-0.310445
2.319000	-0.176013
2.319500	0.018540
2.320000	0.227283
2.320500	0.373159
2.321000	0.417868
2.321500	0.375448
2.322000	0.309377
2.322500	0.275197
2.323000	0.277943
2.323500	0.288624
2.324000	0.257191
2.324500	0.159533
2.325000	0.028306
2.325500	-0.060960
2.326000	-0.040970
2.326500	0.092088
2.327000	0.286793
2.327500	0.473106
2.328000	0.602960
2.328500	0.678492
2.329000	0.720150
2.329500	0.724727
2.330000	0.665217
2.330500	0.506523
2.331000	0.225757
2.331500	-0.120928
2.332000	-0.424430
2.332500	-0.618219
2.333000	-0.692225
2.333500	-0.673915
2.334000	-0.607996
2.334500	-0.544518
2.335000	-0.514916
2.335500	-0.507591
2.336000	-0.499351
2.336500	-0.464103
2.337000	-0.395285
2.337500	-0.310445
2.338000	-0.228962
2.338500	-0.167773
2.339000	-0.132830
2.339500	-0.109941
2.340000	-0.088426
2.340500	-0.065537
2.341000	-0.023575
2.341500	0.026627
2.342000	0.053483
2.342500	0.052415
2.343000	0.065538
2.343500	0.110857
2.344000	0.168689
2.344500	0.218891
2.345000	0.246052
2.345500	0.239796
2.346000	0.187152
2.346500	0.080186
2.347000	-0.062333
2.347500	-0.219501
2.348000	-0.372854
2.348500	-0.490959
2.349000	-0.532006
2.349500	-0.491722
2.350000	-0.405661
2.350500	-0.286183
2.351000	-0.130236
2.351500	0.061875
2.352000	0.268330
2.352500	0.448997
2.353000	0.582818
2.353500	0.667201
2.354000	0.696193
2.354500	0.690852
2.355000	0.684749
2.355500	0.688411
2.356000	0.690242
2.356500	0.671779
2.357000	0.624018
2.357500	0.546807
2.358000	0.440299
2.358500	0.289540
2.359000	0.121691
2.359500	0.004501
2.360000	-0.011673
2.360500	0.083696
2.361000	0.228351
2.361500	0.335927
2.362000	0.357443
2.362500	0.277791
2.363000	0.113146
2.363500	-0.093309
2.364000	-0.300984
2.364500	-0.480735
2.365000	-0.616541
2.365500	-0.704433
2.366000	-0.736477
2.366500	-0.702602
2.367000	-0.598230
2.367500	-0.442893
2.368000	-0.257648
2.368500	-0.064774
2.369000	0.099260
2.369500	0.201953
2.370000	0.241627
2.370500	0.220874
2.371000	0.161364
2.371500	0.087663
2.372000	0.022507
2.372500	0.005112
2.373000	0.070421
2.373500	0.201343
2.374000	0.330434
2.374500	0.393149
2.375000	0.345541
2.375500	0.184863
2.376000	-0.054398
2.376500	-0.302205
2.377000	-0.490806
2.377500	-0.583429
2.378000	-0.574731
2.378500	-0.484245
2.379000	-0.361257
2.379500	-0.275654
2.380000	-0.248341
2.380500	-0.267719
2.381000	-0.319600
2.381500	-0.369955
2.382000	-0.368276
2.382500	-0.297932
2.383000	-0.171130
2.383500	-0.012283
2.384000	0.144122
2.384500	0.265431
2.385000	0.346609
2.385500	0.370108
2.386000	0.317311
2.386500	0.201343
2.387000	0.087358
2.387500	0.020676
2.388000	-0.026627
2.388500	-0.093767
2.389000	-0.170214
2.389500	-0.208972
2.390000	-0.174334
2.390500	-0.075151
2.391000	0.053330
2.391500	0.179675
2.392000	0.289998
2.392500	0.397116
2.393000	0.514763
2.393500	0.608454
2.394000	0.647059
2.394500	0.618219
2.395000	0.518730
2.395500	0.352712
2.396000	0.117266
2.396500	-0.183184
2.397000	-0.508507
2.397500	-0.792325
2.398000	-0.967346
2.398500	-0.966583
2.399000	-0.783780
2.399500	-0.506676
2.400000	-0.277180
2.400500	-0.206683
2.401000	-0.277485
2.401500	-0.373922
2.402000	-0.401389
2.402500	-0.345083
2.403000	-0.239185
2.403500	-0.125811
2.404000	-0.035630
2.404500	0.005112
2.405000	-0.012894
2.405500	-0.056840
2.406000	-0.068894
2.406500	-0.011368
2.407000	0.122606
2.407500	0.337148
2.408000	0.620966
2.408500	0.929503
2.409000	1.202330
2.409500	1.389870
2.410000	1.448920
2.410500	1.323190
2.411000	1.016480
2.411500	0.615473
2.412000	0.206836
2.412500	-0.162890
2.413000	-0.467918
2.413500	-0.730678
2.414000	-0.951171
2.414500	-1.058140
2.415000	-0.972991
2.415500	-0.699855
2.416000	-0.336538
2.416500	-0.000839
2.417000	0.255665
2.417500	0.434501
2.418000	0.566339
2.418500	0.656977
2.419000	0.691463
2.419500	0.686275
2.420000	0.685206
2.420500	0.690242
2.421000	0.646449
2.421500	0.519036
2.422000	0.329061
2.422500	0.133288
2.423000	-0.011368
2.423500	-0.062486
2.424000	-0.023880
2.424500	0.059281
2.425000	0.134203
2.425500	0.161059
2.426000	0.144427
2.426500	0.099107
2.427000	0.036545
2.427500	-0.074235
2.428000	-0.254597
2.428500	-0.461662
2.429000	-0.649042
2.429500	-0.800107
2.430000	-0.906767
2.430500	-0.949798
2.431000	-0.882658
2.431500	-0.681086
2.432000	-0.384604
2.432500	-0.071336
2.433000	0.184100
2.433500	0.331808
2.434000	0.371786
2.434500	0.354238
2.435000	0.333028
2.435500	0.327230
2.436000	0.345846
2.436500	0.400626
2.437000	0.485008
2.437500	0.579767
2.438000	0.630732
2.438500	0.594415
2.439000	0.474479
2.439500	0.280079
2.440000	0.052415
2.440500	-0.123674
2.441000	-0.206226
2.441500	-0.221942
2.442000	-0.236286
2.442500	-0.267109
2.443000	-0.276265
2.443500	-0.240558
2.444000	-0.181964
2.444500	-0.111314
2.445000	-0.031815
2.445500	-0.008774
2.446000	-0.097734
2.446500	-0.284657
2.447000	-0.528496
2.447500	-0.779812
2.448000	-0.965820
2.448500	-1.031590
2.449000	-0.971618
2.449500	-0.806516
2.450000	-0.572290
2.450500	-0.332113
2.451000	-0.138628
2.451500	-0.015335
2.452000	0.047837
2.452500	0.079118
2.453000	0.103380
2.453500	0.131914
2.454000	0.162738
2.454500	0.185473
2.455000	0.184711
2.455500	0.162280
2.456000	0.145953
2.456500	0.156787
2.457000	0.202411
2.457500	0.270924
2.458000	0.325246
2.458500	0.346914
2.459000	0.363546
2.459500	0.407187
2.460000	0.465019
2.460500	0.517510
2.461000	0.556115
2.461500	0.570764
2.462000	0.544366
2.462500	0.482414
2.463000	0.417105
2.463500	0.349508
2.464000	0.277638
2.464500	0.196307
2.465000	0.072862
2.465500	-0.083085
2.466000	-0.252155
2.466500	-0.422446
2.467000	-0.575036
2.467500	-0.676966
2.468000	-0.699855
2.468500	-0.625391
2.469000	-0.459831
2.469500	-0.222858
2.470000	0.039445
2.470500	0.229877
2.471000	0.268177
2.471500	0.195544
2.472000	0.108568
2.472500	0.053025
2.473000	0.018082
2.473500	-0.030594
2.474000	-0.107805
2.474500	-0.174792
2.475000	-0.163653
2.475500	-0.050431
2.476000	0.130541
2.476500	0.302968
2.477000	0.397421
2.477500	0.411460
2.478000	0.384146
2.478500	0.347829
2.479000	0.311208
2.479500	0.291371
2.480000	0.309987
2.480500	0.369192
2.481000	0.443961
2.481500	0.489586
2.482000	0.470359
2.482500	0.408713
2.483000	0.329976
2.483500	0.223316
2.484000	0.056687
2.484500	-0.144732
2.485000	-0.322957
2.485500	-0.432059
2.486000	-0.447471
2.486500	-0.366751
2.487000	-0.227893
2.487500	-0.087510
2.488000	0.004959
2.488500	0.022660
2.489000	-0.040818
2.489500	-0.144579
2.490000	-0.239033
2.490500	-0.290761
2.491000	-0.292134
2.491500	-0.265125
2.492000	-0.241932
2.492500	-0.229572
2.493000	-0.217060
2.493500	-0.198444
2.494000	-0.158770
2.494500	-0.094377
2.495000	-0.044938
2.495500	-0.042496
2.496000	-0.047684
2.496500	-0.004501
2.497000	0.096056
2.497500	0.215686
2.498000	0.314107
2.498500	0.376822
2.499000	0.426719
2.499500	0.480888
2.500000	0.486229
2.500500	0.360342
2.501000	0.065538
2.501500	-0.328298
2.502000	-0.705653
2.502500	-0.980468
2.503000	-1.110320
2.503500	-1.079350
2.504000	-0.893645
2.504500	-0.598077
2.505000	-0.255512
2.505500	0.046464
2.506000	0.216144
2.506500	0.210498
2.507000	0.077287
2.507500	-0.094072
2.508000	-0.224994
2.508500	-0.284810
2.509000	-0.294881
2.509500	-0.283284
2.510000	-0.261158
2.510500	-0.211871
2.511000	-0.121843
2.511500	-0.028153
2.512000	0.040513
2.512500	0.071641
2.513000	0.089189
2.513500	0.150530
2.514000	0.256275
2.514500	0.351186
2.515000	0.356069
2.515500	0.239185
2.516000	0.051041
2.516500	-0.138323
2.517000	-0.305409
2.517500	-0.483940
2.518000	-0.697108
2.518500	-0.933928
2.519000	-1.142670
2.519500	-1.258180
2.520000	-1.249330
2.520500	-1.121610
2.521000	-0.890440
2.521500	-0.596094
2.522000	-0.323262
2.522500	-0.147784
2.523000	-0.081254
2.523500	-0.081102
2.524000	-0.100175
2.524500	-0.102922
2.525000	-0.044480
2.525500	0.074388
2.526000	0.214466
2.526500	0.352865
2.527000	0.471580
2.527500	0.546960
2.528000	0.547723
2.528500	0.450980
2.529000	0.275654
2.529500	0.079271
2.530000	-0.075761
2.530500	-0.152666
2.531000	-0.167315
2.531500	-0.142595
2.532000	-0.097887
2.532500	-0.051041
2.533000	-0.016251
2.533500	0.006943
2.534000	0.014572
2.534500	-0.015030
2.535000	-0.082780
2.535500	-0.170977
2.536000	-0.251240
2.536500	-0.297932
2.537000	-0.287251
2.537500	-0.198138
2.538000	-0.040360
2.538500	0.167315
2.539000	0.373007
2.539500	0.519646
2.540000	0.597009
2.540500	0.642023
2.541000	0.674830
2.541500	0.694972
2.542000	0.713741
2.542500	0.752041
2.543000	0.811704
2.543500	0.865110
2.544000	0.855039
2.544500	0.750668
2.545000	0.562677
2.545500	0.350576
2.546000	0.198901
2.546500	0.124590
2.547000	0.082933
2.547500	-0.001144
2.548000	-0.163348
2.548500	-0.370260
2.549000	-0.550774
2.549500	-0.653162
2.550000	-0.644312
2.550500	-0.525444
2.551000	-0.347982
2.551500	-0.172198
2.552000	-0.004654
2.552500	0.158007
2.553000	0.287099
2.553500	0.351339
2.554000	0.325856
2.554500	0.194019
2.555000	-0.025101
2.555500	-0.276875
2.556000	-0.501793
2.556500	-0.651636
2.557000	-0.705806
2.557500	-0.657282
2.558000	-0.535973
2.558500	-0.406577
2.559000	-0.317616
2.559500	-0.292134
2.560000	-0.322347
2.560500	-0.364462
2.561000	-0.367513
2.561500	-0.315938
2.562000	-0.235370
2.562500	-0.169451
2.563000	-0.150225
2.563500	-0.180438
2.564000	-0.256123
2.564500	-0.357443
2.565000	-0.447623
2.565500	-0.495842
2.566000	-0.492943
2.566500	-0.448844
2.567000	-0.374685
2.567500	-0.280232
2.568000	-0.179522
2.568500	-0.094072
2.569000	-0.033951
2.569500	-0.008163
2.570000	-0.001602
2.570500	0.022355
2.571000	0.102159
2.571500	0.229877
2.572000	0.363699
2.572500	0.465782
2.573000	0.521172
2.573500	0.543145
2.574000	0.534447
2.574500	0.472953
2.575000	0.360494
2.575500	0.197681
2.576000	-0.006790
2.576500	-0.215839
2.577000	-0.383841
2.577500	-0.489891
2.578000	-0.538415
2.578500	-0.543908
2.579000	-0.511711
2.579500	-0.456931
2.580000	-0.417563
2.580500	-0.418784
2.581000	-0.444724
2.581500	-0.457847
2.582000	-0.442740
2.582500	-0.411154
2.583000	-0.372854
2.583500	-0.310750
2.584000	-0.215534
2.584500	-0.102617
2.585000	0.008927
2.585500	0.094072
2.586000	0.131609
2.586500	0.108873
2.587000	0.034104
2.587500	-0.061570
2.588000	-0.142901
2.588500	-0.192950
2.589000	-0.221027
2.589500	-0.259022
2.590000	-0.326619
2.590500	-0.415579
2.591000	-0.495537
2.591500	-0.517662
2.592000	-0.460593
2.592500	-0.344778
2.593000	-0.207599
2.593500	-0.080491
2.594000	0.006638
2.594500	0.039597
2.595000	0.029679
2.595500	-0.011063
2.596000	-0.071183
2.596500	-0.130083
2.597000	-0.166094
2.597500	-0.167620
2.598000	-0.142595
2.598500	-0.107347
2.599000	-0.069657
2.599500	-0.029526
2.600000	0.004807
2.600500	0.030289
2.601000	0.044328
2.601500	0.041123
2.602000	0.029068
2.602500	0.025254
2.603000	0.027695
2.603500	0.020981
2.604000	-0.000687
2.604500	-0.032425
2.605000	-0.072557
2.605500	-0.120012
2.606000	-0.170062
2.606500	-0.216449
2.607000	-0.248493
2.607500	-0.264973
2.608000	-0.270161
2.608500	-0.266804
2.609000	-0.255665
2.609500	-0.231556
2.610000	-0.191730
2.610500	-0.143053
2.611000	-0.098192
2.611500	-0.066606
2.612000	-0.052720
2.612500	-0.060807
2.613000	-0.085222
2.613500	-0.116503
2.614000	-0.141222
2.614500	-0.152514
2.615000	-0.150835
2.615500	-0.141985
2.616000	-0.129473
2.616500	-0.116045
2.617000	-0.107805
2.617500	-0.108263
2.618000	-0.113909
2.618500	-0.117113
2.619000	-0.106889
2.619500	-0.079881
2.620000	-0.042496
2.620500	-0.002365
2.621000	0.037156
2.621500	0.074693
2.622000	0.109484
2.622500	0.130541
2.623000	0.120775
2.623500	0.083848
2.624000	0.041428
2.624500	0.009079
2.625000	-0.011673
2.625500	-0.021134
2.626000	-0.028153
2.626500	-0.051652
2.627000	-0.097124
2.627500	-0.153735
2.628000	-0.209430
2.628500	-0.266804
2.629000	-0.319295
2.629500	-0.352102
2.630000	-0.354848
2.630500	-0.329671
2.631000	-0.291981
2.631500	-0.253529
2.632000	-0.216144
2.632500	-0.177081
2.633000	-0.139086
2.633500	-0.106889
2.634000	-0.083543
2.634500	-0.066758
2.635000	-0.057755
2.635500	-0.058366
2.636000	-0.065995
2.636500	-0.077897
2.637000	-0.094072
2.637500	-0.115740
2.638000	-0.146563
2.638500	-0.179370
2.639000	-0.200427
2.639500	-0.213245
2.640000	-0.227741
2.640500	-0.240711
2.641000	-0.247883
2.641500	-0.253681
2.642000	-0.261616
2.642500	-0.277790
2.643000	-0.302968
2.643500	-0.330434
2.644000	-0.355764
2.644500	-0.377279
2.645000	-0.392233
2.645500	-0.395590
2.646000	-0.385824
2.646500	-0.368734
2.647000	-0.352865
2.647500	-0.336690
2.648000	-0.314870
2.648500	-0.284504
2.649000	-0.247578
2.649500	-0.212482
2.650000	-0.182879
2.650500	-0.157702
2.651000	-0.135271
2.651500	-0.112993
2.652000	-0.093004
2.652500	-0.074540
2.653000	-0.062333
2.653500	-0.061112
2.654000	-0.068894
2.654500	-0.070878
2.655000	-0.054398
2.655500	-0.026322
2.656000	-0.001297
2.656500	0.018998
2.657000	0.042191
2.657500	0.076219
2.658000	0.120775
2.658500	0.160449
2.659000	0.180743
2.659500	0.185321
2.660000	0.186694
2.660500	0.196155
2.661000	0.217212
2.661500	0.242237
2.662000	0.251392
2.662500	0.235065
2.663000	0.205921
2.663500	0.177691
2.664000	0.148394
2.664500	0.109789
2.665000	0.067979
2.665500	0.038071
2.666000	0.032120
2.666500	0.051347
2.667000	0.082628
2.667500	0.113603
2.668000	0.145495
2.668500	0.180591
2.669000	0.214771
2.669500	0.244831
2.670000	0.266957
2.670500	0.280690
2.671000	0.291524
2.671500	0.299001
2.672000	0.292134
2.672500	0.260853
2.673000	0.204242
2.673500	0.127794
2.674000	0.031968
2.674500	-0.083085
2.675000	-0.204852
2.675500	-0.306477
2.676000	-0.363546
2.676500	-0.376669
2.677000	-0.363851
2.677500	-0.339284
2.678000	-0.312276
2.678500	-0.286946
2.679000	-0.263600
2.679500	-0.233081
2.680000	-0.187457
2.680500	-0.128557
2.681000	-0.063859
2.681500	-0.003738
2.682000	0.043565
2.682500	0.065232
2.683000	0.058824
2.683500	0.039750
2.684000	0.025101
2.684500	0.019150
2.685000	0.019303
2.685500	0.023117
2.686000	0.027695
2.686500	0.034409
2.687000	0.038682
2.687500	0.037766
2.688000	0.033799
2.688500	0.022355
2.689000	-0.002823
2.689500	-0.047684
2.690000	-0.113146
2.690500	-0.186847
2.691000	-0.252766
2.691500	-0.299611
2.692000	-0.326619
2.692500	-0.334859
2.693000	-0.333181
2.693500	-0.333638
2.694000	-0.341421
2.694500	-0.352102
2.695000	-0.353170
2.695500	-0.337911
2.696000	-0.305257
2.696500	-0.261158
2.697000	-0.217060
2.697500	-0.182269
2.698000	-0.157244
2.698500	-0.136950
2.699000	-0.120317
2.699500	-0.104601
2.700000	-0.086747
2.700500	-0.068589
2.701000	-0.048753
2.701500	-0.031815
2.702000	-0.026627
2.702500	-0.044633
2.703000	-0.083696
2.703500	-0.127031
2.704000	-0.158160
2.704500	-0.172198
2.705000	-0.181659
2.705500	-0.206378
2.706000	-0.251697
2.706500	-0.301900
2.707000	-0.343862
2.707500	-0.374838
2.708000	-0.390249
2.708500	-0.389486
2.709000	-0.379263
2.709500	-0.377737
2.710000	-0.397421
2.710500	-0.432517
2.711000	-0.466239
2.711500	-0.485313
2.712000	-0.491417
2.712500	-0.484245
2.713000	-0.461509
2.713500	-0.433127
2.714000	-0.412375
2.714500	-0.405356
2.715000	-0.408408
2.715500	-0.414359
2.716000	-0.419089
2.716500	-0.417868
2.717000	-0.407797
2.717500	-0.385214
2.718000	-0.349355
2.718500	-0.306630
2.719000	-0.269856
2.719500	-0.249866
2.720000	-0.248646
2.720500	-0.257038
2.721000	-0.266194
2.721500	-0.269551
2.722000	-0.264515
2.722500	-0.257038
2.723000	-0.251545
2.723500	-0.244526
2.724000	-0.239338
2.724500	-0.244373
2.725000	-0.255207
2.725500	-0.257343
2.726000	-0.246815
2.726500	-0.226520
2.727000	-0.200580
2.727500	-0.177539
2.728000	-0.177996
2.728500	-0.217975
2.729000	-0.284504
2.729500	-0.352254
2.730000	-0.410544
2.730500	-0.455405
2.731000	-0.483177
2.731500	-0.487297
2.732000	-0.468528
2.732500	-0.437095
2.733000	-0.404288
2.733500	-0.378347
2.734000	-0.357748
2.734500	-0.338827
2.735000	-0.324025
2.735500	-0.318379
2.736000	-0.320516
2.736500	-0.321584
2.737000	-0.312886
2.737500	-0.294575
2.738000	-0.271687
2.738500	-0.252308
2.739000	-0.239033
2.739500	-0.230793
2.740000	-0.228351
2.740500	-0.234455
2.741000	-0.245441
2.741500	-0.254139
2.742000	-0.257191
2.742500	-0.254597
2.743000	-0.249256
2.743500	-0.243000
2.744000	-0.238575
2.744500	-0.236438
2.745000	-0.235981
2.745500	-0.236896
2.746000	-0.239643
2.746500	-0.244831
2.747000	-0.253529
2.747500	-0.267872
2.748000	-0.286793
2.748500	-0.305562
2.749000	-0.316548
2.749500	-0.320973
2.750000	-0.320516
2.750500	-0.318685
2.751000	-0.317616
2.751500	-0.317159
2.752000	-0.316396
2.752500	-0.313191
2.753000	-0.306325
2.753500	-0.293660
2.754000	-0.277638
2.754500	-0.260548
2.755000	-0.246052
2.755500	-0.236286
2.756000	-0.235370
2.756500	-0.243610
2.757000	-0.257801
2.757500	-0.272908
2.758000	-0.284352
2.758500	-0.289998
2.759000	-0.288167
2.759500	-0.280995
2.760000	-0.275654
2.760500	-0.274586
2.761000	-0.275196
2.761500	-0.272297
2.762000	-0.264057
2.762500	-0.252766
2.763000	-0.243610
2.763500	-0.240558
2.764000	-0.241474
2.764500	-0.243610
2.765000	-0.247120
2.765500	-0.255207
2.766000	-0.265888
2.766500	-0.272297
2.767000	-0.270161
2.767500	-0.259785
2.768000	-0.246357
2.768500	-0.234913
2.769000	-0.223468
2.769500	-0.210651
2.770000	-0.200580
2.770500	-0.198749
2.771000	-0.204852
2.771500	-0.211261
2.772000	-0.207599
2.772500	-0.196307
2.773000	-0.182422
2.773500	-0.169299
2.774000	-0.163348
2.774500	-0.163653
2.775000	-0.162585
2.775500	-0.157702
2.776000	-0.154192
2.776500	-0.157549
2.777000	-0.169146
2.777500	-0.185779
2.778000	-0.199664
2.778500	-0.205615
2.779000	-0.204852
2.779500	-0.200732
2.780000	-0.196155
2.780500	-0.193408
2.781000	-0.192798
2.781500	-0.193255
2.782000	-0.194171
2.782500	-0.200732
2.783000	-0.224384
2.783500	-0.262531
2.784000	-0.304189
2.784500	-0.345998
2.785000	-0.384604
2.785500	-0.406882
2.786000	-0.406271
2.786500	-0.384604
2.787000	-0.351034
2.787500	-0.316243
2.788000	-0.285878
2.788500	-0.260090
2.789000	-0.241016
2.789500	-0.227588
2.790000	-0.218891
2.790500	-0.212482
2.791000	-0.206531
2.791500	-0.206378
2.792000	-0.214313
2.792500	-0.224689
2.793000	-0.236286
2.793500	-0.251697
2.794000	-0.266346
2.794500	-0.276722
2.795000	-0.280537
2.795500	-0.278553
2.796000	-0.274586
2.796500	-0.279927
2.797000	-0.300374
2.797500	-0.325856
2.798000	-0.345388
2.798500	-0.353475
2.799000	-0.352254
2.799500	-0.342794
2.800000	-0.323110
2.800500	-0.295491
2.801000	-0.265888
2.801500	-0.239948
2.802000	-0.221027
2.802500	-0.207599
2.803000	-0.197833
2.803500	-0.192645
2.804000	-0.191119
2.804500	-0.189441
2.805000	-0.187152
2.805500	-0.187152
2.806000	-0.193255
2.806500	-0.202411
2.807000	-0.210040
2.807500	-0.215228
2.808000	-0.218585
2.808500	-0.220874
2.809000	-0.224994
2.809500	-0.231250
2.810000	-0.239948
2.810500	-0.249866
2.811000	-0.260090
2.811500	-0.272297
2.812000	-0.286641
2.812500	-0.300679
2.813000	-0.312886
2.813500	-0.323567
2.814000	-0.331502
2.814500	-0.332113
2.815000	-0.323567
2.815500	-0.311055
2.816000	-0.300069
2.816500	-0.294881
2.817000	-0.296101
2.817500	-0.300679
2.818000	-0.300832
2.818500	-0.294270
2.819000	-0.283589
2.819500	-0.271687
2.820000	-0.260090
2.820500	-0.250019
2.821000	-0.243152
2.821500	-0.241321
2.822000	-0.243458
2.822500	-0.246509
2.823000	-0.248798
2.823500	-0.250629
2.824000	-0.251545
2.824500	-0.249561
2.825000	-0.243915
2.825500	-0.239795
2.826000	-0.238880
2.826500	-0.236286
2.827000	-0.225910
2.827500	-0.208057
2.828000	-0.190204
2.828500	-0.179980
2.829000	-0.181659
2.829500	-0.189288
2.830000	-0.193255
2.830500	-0.189898
2.831000	-0.182269
2.831500	-0.175402
2.832000	-0.170977
2.832500	-0.171435
2.833000	-0.175708
2.833500	-0.181048
2.834000	-0.185931
2.834500	-0.188830
2.835000	-0.190814
2.835500	-0.194934
2.836000	-0.203326
2.836500	-0.213245
2.837000	-0.219959
2.837500	-0.223621
2.838000	-0.227283
2.838500	-0.231708
2.839000	-0.235676
2.839500	-0.236438
2.840000	-0.234455
2.840500	-0.230182
2.841000	-0.225910
2.841500	-0.223926
2.842000	-0.225605
2.842500	-0.228962
2.843000	-0.232471
2.843500	-0.235523
2.844000	-0.238727
2.844500	-0.242695
2.845000	-0.246662
2.845500	-0.249409
2.846000	-0.252918
2.846500	-0.258564
2.847000	-0.266346
2.847500	-0.273518
2.848000	-0.275654
2.848500	-0.271534
2.849000	-0.262074
2.849500	-0.250629
2.850000	-0.241474
2.850500	-0.234913
2.851000	-0.227130
2.851500	-0.217365
2.852000	-0.208209
2.852500	-0.198901
2.853000	-0.188067
2.853500	-0.177386
2.854000	-0.168994
2.854500	-0.164416
2.855000	-0.165484
2.855500	-0.173266
2.856000	-0.184405
2.856500	-0.194781
2.857000	-0.199969
2.857500	-0.202716
2.858000	-0.204395
2.858500	-0.204547
2.859000	-0.203479
2.859500	-0.204852
2.860000	-0.211261
2.860500	-0.221485
2.861000	-0.232929
2.861500	-0.243152
2.862000	-0.252155
2.862500	-0.258259
2.863000	-0.261921
2.863500	-0.262684
2.864000	-0.260700
2.864500	-0.255512
2.865000	-0.249103
2.865500	-0.240558
2.866000	-0.229877
2.866500	-0.217517
2.867000	-0.206378
2.867500	-0.197528
2.868000	-0.191119
2.868500	-0.187152
2.869000	-0.186236
2.869500	-0.187762
2.870000	-0.191730
2.870500	-0.199206
2.871000	-0.211108
2.871500	-0.223773
2.872000	-0.232624
2.872500	-0.233234
2.873000	-0.225605
2.873500	-0.212482
2.874000	-0.199054
2.874500	-0.190814
2.875000	-0.191272
2.875500	-0.198138
2.876000	-0.207904
2.876500	-0.217517
2.877000	-0.226520
2.877500	-0.234455
2.878000	-0.238117
2.878500	-0.238727
2.879000	-0.233844
2.879500	-0.222553
2.880000	-0.207599
2.880500	-0.193561
2.881000	-0.183032
2.881500	-0.178149
2.882000	-0.182422
2.882500	-0.194476
2.883000	-0.204242
2.883500	-0.207599
2.884000	-0.203174
2.884500	-0.192340
2.885000	-0.177233
2.885500	-0.162280
2.886000	-0.149157
2.886500	-0.138628
2.887000	-0.132372
2.887500	-0.130999
2.888000	-0.133745
2.888500	-0.138323
2.889000	-0.142901
2.889500	-0.146563
2.890000	-0.148394
2.890500	-0.147936
2.891000	-0.145190
2.891500	-0.141680
2.892000	-0.141527
2.892500	-0.144884
2.893000	-0.152972
2.893500	-0.163958
2.894000	-0.177691
2.894500	-0.190051
2.895000	-0.200275
2.895500	-0.208209
2.896000	-0.211414
2.896500	-0.211871
2.897000	-0.209430
2.897500	-0.205157
2.898000	-0.202106
2.898500	-0.200275
2.899000	-0.200275
2.899500	-0.200122
2.900000	-0.195239
2.900500	-0.183184
2.901000	-0.168383
2.901500	-0.156023
2.902000	-0.152514
2.902500	-0.156634
2.903000	-0.164568
2.903500	-0.169604
2.904000	-0.168536
2.904500	-0.163958
2.905000	-0.162127
2.905500	-0.164416
2.906000	-0.170519
2.906500	-0.181048
2.907000	-0.193866
2.907500	-0.205463
2.908000	-0.215228
2.908500	-0.225147
2.909000	-0.233234
2.909500	-0.234455
2.910000	-0.225910
2.910500	-0.212482
2.911000	-0.199969
2.911500	-0.192950
2.912000	-0.192492
2.912500	-0.196765
2.913000	-0.203174
2.913500	-0.209125
2.914000	-0.213703
2.914500	-0.214923
2.915000	-0.211414
2.915500	-0.204395
2.916000	-0.195849
2.916500	-0.188373
2.917000	-0.183642
2.917500	-0.180743
2.918000	-0.178302
2.918500	-0.176776
2.919000	-0.175860
2.919500	-0.177081
2.920000	-0.181201
2.920500	-0.184558
2.921000	-0.186999
2.921500	-0.187304
2.922000	-0.183337
2.922500	-0.177386
2.923000	-0.174639
2.923500	-0.174792
2.924000	-0.175860
2.924500	-0.177081
2.925000	-0.178454
2.925500	-0.180896
2.926000	-0.183184
2.926500	-0.185779
2.927000	-0.188678
2.927500	-0.193866
2.928000	-0.204395
2.928500	-0.220416
2.929000	-0.238117
2.929500	-0.252003
2.930000	-0.261005
2.930500	-0.264973
2.931000	-0.263752
2.931500	-0.258106
2.932000	-0.251087
2.932500	-0.243915
2.933000	-0.237659
2.933500	-0.232471
2.934000	-0.228504
2.934500	-0.227588
2.935000	-0.233234
2.935500	-0.245136
2.936000	-0.258717
2.936500	-0.269245
2.937000	-0.276265
2.937500	-0.279469
2.938000	-0.278706
2.938500	-0.277333
2.939000	-0.276722
2.939500	-0.277027
2.940000	-0.278553
2.940500	-0.279927
2.941000	-0.279927
2.941500	-0.278553
2.942000	-0.276570
2.942500	-0.278096
2.943000	-0.284810
2.943500	-0.293660
2.944000	-0.298695
2.944500	-0.300374
2.945000	-0.301594
2.945500	-0.302357
2.946000	-0.300984
2.946500	-0.295949
2.947000	-0.286030
2.947500	-0.274433
2.948000	-0.263752
2.948500	-0.255054
2.949000	-0.248188
2.949500	-0.242389
2.950000	-0.237812
2.950500	-0.233234
2.951000	-0.226825
2.951500	-0.218280
2.952000	-0.211566
2.952500	-0.211261
2.953000	-0.216907
2.953500	-0.223621
2.954000	-0.229724
2.954500	-0.232013
2.955000	-0.229877
2.955500	-0.223163
2.956000	-0.212329
2.956500	-0.200122
2.957000	-0.190509
2.957500	-0.188067
2.958000	-0.194171
2.958500	-0.206836
2.959000	-0.222248
2.959500	-0.238117
2.960000	-0.252613
2.960500	-0.264668
2.961000	-0.277943
2.961500	-0.292286
2.962000	-0.302815
2.962500	-0.308308
2.963000	-0.307088
2.963500	-0.299763
2.964000	-0.287709
2.964500	-0.277027
2.965000	-0.271076
2.965500	-0.269398
2.966000	-0.267719
2.966500	-0.263142
2.967000	-0.257954
2.967500	-0.255054
2.968000	-0.254749
2.968500	-0.255665
2.969000	-0.254902
2.969500	-0.251850
2.970000	-0.249866
2.970500	-0.249409
2.971000	-0.250782
2.971500	-0.252460
2.972000	-0.252766
2.972500	-0.253376
2.973000	-0.255817
2.973500	-0.260090
2.974000	-0.265888
2.974500	-0.271382
2.975000	-0.275502
2.975500	-0.280079
2.976000	-0.286946
2.976500	-0.291829
2.977000	-0.291371
2.977500	-0.287556
2.978000	-0.285725
2.978500	-0.287098
2.979000	-0.290455
2.979500	-0.293049
2.980000	-0.293812
2.980500	-0.294423
2.981000	-0.295491
2.981500	-0.295033
2.982000	-0.293049
2.982500	-0.289082
2.983000	-0.284504
2.983500	-0.280384
2.984000	-0.276265
2.984500	-0.270161
2.985000	-0.261616
2.985500	-0.250477
2.986000	-0.238117
2.986500	-0.227436
2.987000	-0.219806
2.987500	-0.213855
2.988000	-0.207141
2.988500	-0.197833
2.989000	-0.189136
2.989500	-0.183490
2.990000	-0.182574
2.990500	-0.184405
2.991000	-0.186084
2.991500	-0.186847
2.992000	-0.188067
2.992500	-0.190356
2.993000	-0.193255
2.993500	-0.197223
2.994000	-0.202869
2.994500	-0.209735
2.995000	-0.215534
2.995500	-0.217822
2.996000	-0.215991
2.996500	-0.215534
2.997000	-0.220111
2.997500	-0.227741
2.998000	-0.233692
2.998500	-0.238422
2.999000	-0.241016
2.999500	-0.240558
3.000000	-0.236286
3.000500	-0.228199
3.001000	-0.215839
3.001500	-0.203632
3.002000	-0.199664
3.002500	-0.204547
3.003000	-0.212177
3.003500	-0.216754
3.004000	-0.218738
3.004500	-0.221027
3.005000	-0.224689
3.005500	-0.228351
3.006000	-0.232013
3.006500	-0.235981
3.007000	-0.238727
3.007500	-0.239948
3.008000	-0.239338
3.008500	-0.238727
3.009000	-0.239185
3.009500	-0.240864
3.010000	-0.242542
3.010500	-0.240864
3.011000	-0.235370
3.011500	-0.228656
3.012000	-0.226368
3.012500	-0.228656
3.013000	-0.231556
3.013500	-0.231098
3.014000	-0.225605
3.014500	-0.217670
3.015000	-0.210040
3.015500	-0.205463
3.016000	-0.203632
3.016500	-0.201190
3.017000	-0.195392
3.017500	-0.186847
3.018000	-0.177386
3.018500	-0.168994
3.019000	-0.162127
3.019500	-0.157244
3.020000	-0.154650
3.020500	-0.153429
3.021000	-0.153124
3.021500	-0.152972
3.022000	-0.151598
3.022500	-0.148699
3.023000	-0.145495
3.023500	-0.143664
3.024000	-0.145190
3.024500	-0.149615
3.025000	-0.153582
3.025500	-0.154803
3.026000	-0.153277
3.026500	-0.150072
3.027000	-0.147021
3.027500	-0.145342
3.028000	-0.143969
3.028500	-0.142290
3.029000	-0.140459
3.029500	-0.138018
3.030000	-0.135882
3.030500	-0.132982
3.031000	-0.129473
3.031500	-0.124895
3.032000	-0.120012
3.032500	-0.115282
3.033000	-0.113603
3.033500	-0.115740
3.034000	-0.116960
3.034500	-0.115282
3.035000	-0.111620
3.035500	-0.109331
3.036000	-0.111467
3.036500	-0.116045
3.037000	-0.120775
3.037500	-0.122759
3.038000	-0.125353
3.038500	-0.130541
3.039000	-0.136644
3.039500	-0.141833
3.040000	-0.147021
3.040500	-0.149920
3.041000	-0.150683
3.041500	-0.150225
3.042000	-0.147784
3.042500	-0.144732
3.043000	-0.145800
3.043500	-0.152666
3.044000	-0.161517
3.044500	-0.169451
3.045000	-0.175250
3.045500	-0.180438
3.046000	-0.186084
3.046500	-0.191424
3.047000	-0.195239
3.047500	-0.195697
3.048000	-0.191272
3.048500	-0.181811
3.049000	-0.169299
3.049500	-0.158770
3.050000	-0.156634
3.050500	-0.160601
3.051000	-0.165331
3.051500	-0.165331
3.052000	-0.160296
3.052500	-0.155108
3.053000	-0.150225
3.053500	-0.145342
3.054000	-0.141070
3.054500	-0.138018
3.055000	-0.139849
3.055500	-0.145037
3.056000	-0.150225
3.056500	-0.154803
3.057000	-0.158160
3.057500	-0.159991
3.058000	-0.158770
3.058500	-0.155260
3.059000	-0.147784
3.059500	-0.137102
3.060000	-0.127642
3.060500	-0.124590
3.061000	-0.128862
3.061500	-0.137407
3.062000	-0.147478
3.062500	-0.156329
3.063000	-0.160906
3.063500	-0.158770
3.064000	-0.156329
3.064500	-0.161669
3.065000	-0.171435
3.065500	-0.180133
3.066000	-0.186389
